345,274	-176,37432
345,493	-176,37432
345,712	-176,37432
345,932	-236,73526
346,151	52,54098
346,37	4,682
346,59	13,00549
346,809	67,10623
347,028	37,97549
347,247	-1,56067
347,467	-61,90887
347,686	0,52022
347,905	-22,36991
348,124	13,00549
348,343	-32,77472
348,563	-70,2331
348,782	35,89468
349,001	6,76288
349,22	8,84376
349,439	-43,17966
349,658	58,78326
349,877	-47,34167
350,096	-36,93668
350,315	60,86401
350,534	162,81471
350,753	27,57141
350,972	-26,53182
351,191	108,71989
351,41	-5,72248
351,629	42,13708
351,848	-55,66576
352,067	8,84376
352,286	89,99399
352,505	15,08635
352,724	56,70251
352,943	-14,04616
353,162	35,89468
353,381	-61,90887
353,599	-20,28897
353,818	-20,28897
354,037	-34,8557
354,256	81,67124
354,475	29,65224
354,693	8,84376
354,912	0,52022
355,131	-91,04404
355,35	21,32891
355,568	-11,96523
355,787	23,40975
356,006	23,40975
356,224	-39,01767
356,443	137,84828
356,661	-57,74679
356,88	-7,80339
357,099	-3,64157
357,317	-18,20802
357,536	-3,64157
357,754	48,37944
357,973	73,34841
358,191	33,81387
358,41	-20,28897
358,628	21,32891
358,847	0,52022
359,065	-74,39525
359,284	-122,26141
359,502	-78,55741
359,721	-70,2331
359,939	98,31666
360,157	73,34841
360,376	40,05629
360,594	-36,93668
360,813	50,46021
361,031	37,97549
361,249	100,39732
361,467	21,32891
361,686	-82,7196
361,904	44,21787
362,122	29,65224
362,341	-51,5037
362,559	100,39732
362,777	27,57141
362,995	73,34841
363,213	33,81387
363,431	-16,12709
363,65	-30,69375
363,868	6,76288
364,086	87,91331
364,304	-68,15204
364,522	89,99399
364,74	-68,15204
364,958	58,78326
365,176	42,13708
365,394	17,16721
365,612	21,32891
365,83	92,07467
366,048	-43,17966
366,266	48,37944
366,484	-118,09903
366,702	-107,69316
366,92	19,24806
367,138	-36,93668
367,356	33,81387
367,574	46,29866
367,792	19,24806
368,01	-47,34167
368,227	50,46021
368,445	6,76288
368,663	96,236
368,881	-18,20802
369,099	-143,07365
369,316	102,47797
369,534	-16,12709
369,752	29,65224
369,97	-45,26066
370,187	-45,26066
370,405	-59,82783
370,623	77,50984
370,84	-53,58473
371,058	-32,77472
371,276	29,65224
371,493	29,65224
371,711	89,99399
371,928	42,13708
372,146	35,89468
372,364	4,682
372,581	104,55862
372,799	58,78326
373,016	-9,88431
373,234	31,73306
373,451	-11,96523
373,669	-53,58473
373,886	-55,66576
374,103	62,94476
374,321	21,32891
374,538	25,49058
374,756	-28,61278
374,973	-51,5037
375,19	17,16721
375,408	-11,96523
375,625	94,15534
375,842	29,65224
376,06	-3,64157
376,277	35,89468
376,494	-11,96523
376,712	-34,8557
376,929	-3,64157
377,146	-41,09866
377,363	-1,56067
377,581	42,13708
377,798	75,42912
378,015	-16,12709
378,232	-84,8007
378,449	50,46021
378,666	-43,17966
378,883	10,92463
379,101	-63,98992
379,318	-32,77472
379,535	102,47797
379,752	0,52022
379,969	-55,66576
380,186	-22,36991
380,403	40,05629
380,62	48,37944
380,837	19,24806
381,054	85,83263
381,271	-14,04616
381,488	0,52022
381,705	4,682
381,921	-9,88431
382,138	35,89468
382,355	-1,56067
382,572	-39,01767
382,789	21,32891
383,006	-11,96523
383,223	-55,66576
383,439	162,81471
383,656	-9,88431
383,873	50,46021
384,09	4,682
384,306	-5,72248
384,523	0,52022
384,74	33,81387
384,957	69,18696
385,173	-28,61278
385,39	65,0255
385,607	77,50984
385,823	15,08635
386,04	-26,53182
386,256	-57,74679
386,473	-3,64157
386,69	-76,47633
386,906	50,46021
387,123	42,13708
387,339	89,99399
387,556	-3,64157
387,772	-57,74679
387,989	27,57141
388,205	-14,04616
388,422	-24,45086
388,638	-24,45086
388,855	27,57141
389,071	56,70251
389,287	-63,98992
389,504	6,76288
389,72	94,15534
389,937	-118,09903
390,153	62,94476
390,369	44,21787
390,585	-16,12709
390,802	19,24806
391,018	-32,77472
391,234	108,71989
391,451	-5,72248
391,667	27,57141
391,883	-59,82783
392,099	52,54098
392,315	6,76288
392,532	-30,69375
392,748	48,37944
392,964	46,29866
393,18	77,50984
393,396	58,78326
393,612	27,57141
393,828	13,00549
394,044	75,42912
394,26	73,34841
394,477	40,05629
394,693	31,73306
394,909	-7,80339
395,125	85,83263
395,341	112,88115
395,557	62,94476
395,772	8,84376
395,988	169,0562
396,204	-22,36991
396,42	58,78326
396,636	46,29866
396,852	60,86401
397,068	56,70251
397,284	65,0255
397,5	56,70251
397,715	58,78326
397,931	-39,01767
398,147	37,97549
398,363	87,91331
398,578	4,682
398,794	-55,66576
399,01	-43,17966
399,226	108,71989
399,441	13,00549
399,657	-70,2331
399,873	6,76288
400,088	33,81387
400,304	15,08635
400,52	42,13708
400,735	4,682
400,951	96,236
401,166	35,89468
401,382	21,32891
401,597	19,24806
401,813	129,52598
402,029	8,84376
402,244	-43,17966
402,46	104,55862
402,675	-9,88431
402,89	17,16721
403,106	48,37944
403,321	54,62175
403,537	13,00549
403,752	-24,45086
403,968	6,76288
404,183	87,91331
404,398	-32,77472
404,614	46,29866
404,829	-26,53182
405,044	-24,45086
405,26	13,00549
405,475	-34,8557
405,69	0,52022
405,905	-116,01784
406,121	2,60111
406,336	-36,93668
406,551	21,32891
406,766	-59,82783
406,981	-26,53182
407,196	-55,66576
407,412	46,29866
407,627	62,94476
407,842	42,13708
408,057	142,0094
408,272	-68,15204
408,487	37,97549
408,702	-49,42269
408,917	2,60111
409,132	27,57141
409,347	108,71989
409,562	150,33158
409,777	-5,72248
409,992	-55,66576
410,207	44,21787
410,422	69,18696
410,637	156,57316
410,852	-1,56067
411,067	40,05629
411,282	-34,8557
411,496	6,76288
411,711	0,52022
411,926	171,13669
412,141	83,75194
412,356	-16,12709
412,571	17,16721
412,785	15,08635
413	50,46021
413,215	48,37944
413,429	69,18696
413,644	15,08635
413,859	-3,64157
414,074	77,50984
414,288	75,42912
414,503	94,15534
414,718	8,84376
414,932	42,13708
415,147	60,86401
415,361	81,67124
415,576	48,37944
415,79	-9,88431
416,005	-5,72248
416,22	-72,31417
416,434	4,682
416,649	-32,77472
416,863	37,97549
417,077	-5,72248
417,292	-34,8557
417,506	146,1705
417,721	-55,66576
417,935	104,55862
418,15	-93,12516
418,364	54,62175
418,578	-16,12709
418,793	19,24806
419,007	13,00549
419,221	-11,96523
419,436	92,07467
419,65	2,60111
419,864	27,57141
420,078	121,20361
420,293	96,236
420,507	-18,20802
420,721	6,76288
420,935	-26,53182
421,149	58,78326
421,364	-74,39525
421,578	54,62175
421,792	37,97549
422,006	46,29866
422,22	10,92463
422,434	102,47797
422,648	-49,42269
422,862	100,39732
423,076	29,65224
423,29	-59,82783
423,504	23,40975
423,718	60,86401
423,932	81,67124
424,146	-7,80339
424,36	37,97549
424,574	121,20361
424,788	98,31666
425,002	46,29866
425,216	148,25104
425,43	-32,77472
425,644	8,84376
425,858	-78,55741
426,071	-28,61278
426,285	17,16721
426,499	98,31666
426,713	48,37944
426,927	-11,96523
427,14	13,00549
427,354	198,18261
427,568	-16,12709
427,782	112,88115
427,995	4,682
428,209	104,55862
428,423	-28,61278
428,636	-22,36991
428,85	-61,90887
429,063	-11,96523
429,277	133,68714
429,491	29,65224
429,704	-14,04616
429,918	67,10623
430,131	87,91331
430,345	56,70251
430,558	-116,01784
430,772	23,40975
430,985	-14,04616
431,199	83,75194
431,412	42,13708
431,626	23,40975
431,839	-32,77472
432,053	-39,01767
432,266	40,05629
432,479	44,21787
432,693	17,16721
432,906	-18,20802
433,119	60,86401
433,333	-11,96523
433,546	44,21787
433,759	-5,72248
433,973	17,16721
434,186	94,15534
434,399	-11,96523
434,612	152,41211
434,825	144,08995
435,039	6,76288
435,252	19,24806
435,465	133,68714
435,678	-101,4497
435,891	-5,72248
436,104	13,00549
436,318	-26,53182
436,531	-14,04616
436,744	8,84376
436,957	102,47797
437,17	-99,36855
437,383	67,10623
437,596	19,24806
437,809	27,57141
438,022	48,37944
438,235	48,37944
438,448	85,83263
438,661	65,0255
438,874	10,92463
439,086	-20,28897
439,299	17,16721
439,512	110,80052
439,725	17,16721
439,938	119,123
440,151	-49,42269
440,364	27,57141
440,576	110,80052
440,789	40,05629
441,002	44,21787
441,215	-72,31417
441,427	-43,17966
441,64	6,76288
441,853	108,71989
442,066	19,24806
442,278	27,57141
442,491	-7,80339
442,704	71,26769
442,916	23,40975
443,129	135,76771
443,341	27,57141
443,554	6,76288
443,767	79,59054
443,979	71,26769
444,192	44,21787
444,404	15,08635
444,617	75,42912
444,829	-41,09866
445,042	58,78326
445,254	-14,04616
445,467	-53,58473
445,679	169,0562
445,892	110,80052
446,104	19,24806
446,316	6,76288
446,529	-66,07098
446,741	-18,20802
446,953	114,96177
447,166	-22,36991
447,378	104,55862
447,59	56,70251
447,803	58,78326
448,015	-3,64157
448,227	-14,04616
448,439	-11,96523
448,652	-78,55741
448,864	6,76288
449,076	133,68714
449,288	6,76288
449,5	-41,09866
449,712	-53,58473
449,925	25,49058
450,137	73,34841
450,349	-41,09866
450,561	85,83263
450,773	-20,28897
450,985	6,76288
451,197	-24,45086
451,409	-26,53182
451,621	52,54098
451,833	75,42912
452,045	33,81387
452,257	-39,01767
452,469	67,10623
452,681	-47,34167
452,893	-51,5037
453,105	-1,56067
453,317	77,50984
453,529	40,05629
453,74	-26,53182
453,952	17,16721
454,164	129,52598
454,376	-1,56067
454,588	-20,28897
454,799	37,97549
455,011	-76,47633
455,223	0,52022
455,435	8,84376
455,646	29,65224
455,858	-24,45086
456,07	50,46021
456,281	-101,4497
456,493	44,21787
456,705	37,97549
456,916	-30,69375
457,128	119,123
457,34	42,13708
457,551	56,70251
457,763	46,29866
457,974	-80,6385
458,186	119,123
458,397	-22,36991
458,609	-24,45086
458,82	0,52022
459,032	-5,72248
459,243	189,86087
459,455	119,123
459,666	2,60111
459,878	-1,56067
460,089	23,40975
460,3	-16,12709
460,512	10,92463
460,723	135,76771
460,934	-41,09866
461,146	92,07467
461,357	189,86087
461,568	48,37944
461,78	35,89468
461,991	31,73306
462,202	31,73306
462,413	71,26769
462,625	100,39732
462,836	-43,17966
463,047	-11,96523
463,258	42,13708
463,469	25,49058
463,68	44,21787
463,891	96,236
464,103	-66,07098
464,314	35,89468
464,525	10,92463
464,736	114,96177
464,947	0,52022
465,158	31,73306
465,369	-1,56067
465,58	-63,98992
465,791	17,16721
466,002	31,73306
466,213	4,682
466,424	75,42912
466,635	-63,98992
466,846	102,47797
467,056	-36,93668
467,267	21,32891
467,478	-30,69375
467,689	-22,36991
467,9	-30,69375
468,111	-120,18021
468,322	-28,61278
468,532	65,0255
468,743	-22,36991
468,954	19,24806
469,165	13,00549
469,375	-3,64157
469,586	50,46021
469,797	98,31666
470,007	-30,69375
470,218	-99,36855
470,429	13,00549
470,639	44,21787
470,85	4,682
471,061	-5,72248
471,271	-18,20802
471,482	-3,64157
471,692	106,63926
471,903	37,97549
472,113	27,57141
472,324	4,682
472,534	37,97549
472,745	-53,58473
472,955	71,26769
473,166	-51,5037
473,376	21,32891
473,587	-20,28897
473,797	-49,42269
474,007	29,65224
474,218	-32,77472
474,428	8,84376
474,638	-11,96523
474,849	-5,72248
475,059	42,13708
475,269	2,60111
475,48	15,08635
475,69	46,29866
475,9	81,67124
476,11	94,15534
476,321	65,0255
476,531	100,39732
476,741	4,682
476,951	17,16721
477,161	10,92463
477,371	62,94476
477,581	-5,72248
477,792	-49,42269
478,002	110,80052
478,212	77,50984
478,422	-128,50503
478,632	19,24806
478,842	-43,17966
479,052	-22,36991
479,262	19,24806
479,472	100,39732
479,682	-22,36991
479,892	79,59054
480,102	48,37944
480,312	81,67124
480,522	164,89521
480,731	-51,5037
480,941	117,04239
481,151	4,682
481,361	-3,64157
481,571	29,65224
481,781	67,10623
481,991	2,60111
482,2	50,46021
482,41	58,78326
482,62	46,29866
482,83	77,50984
483,039	-59,82783
483,249	35,89468
483,459	15,08635
483,668	-3,64157
483,878	-88,96292
484,088	-45,26066
484,297	-5,72248
484,507	46,29866
484,716	29,65224
484,926	98,31666
485,136	0,52022
485,345	27,57141
485,555	37,97549
485,764	8,84376
485,974	8,84376
486,183	139,92884
486,393	65,0255
486,602	87,91331
486,812	48,37944
487,021	-22,36991
487,23	21,32891
487,44	-32,77472
487,649	-11,96523
487,859	79,59054
488,068	-1,56067
488,277	25,49058
488,487	69,18696
488,696	0,52022
488,905	-78,55741
489,115	13,00549
489,324	2,60111
489,533	65,0255
489,742	81,67124
489,951	54,62175
490,161	50,46021
490,37	2,60111
490,579	-7,80339
490,788	92,07467
490,997	-78,55741
491,206	-18,20802
491,415	-5,72248
491,625	-34,8557
491,834	-30,69375
492,043	13,00549
492,252	79,59054
492,461	-80,6385
492,67	-28,61278
492,879	106,63926
493,088	-53,58473
493,297	121,20361
493,506	-59,82783
493,715	54,62175
493,924	-74,39525
494,132	25,49058
494,341	25,49058
494,55	54,62175
494,759	-20,28897
494,968	31,73306
495,177	-1,56067
495,386	77,50984
495,594	29,65224
495,803	37,97549
496,012	-66,07098
496,221	-24,45086
496,429	-9,88431
496,638	71,26769
496,847	92,07467
497,055	52,54098
497,264	-47,34167
497,473	42,13708
497,681	62,94476
497,89	77,50984
498,099	19,24806
498,307	-63,98992
498,516	106,63926
498,724	137,84828
498,933	-18,20802
499,141	31,73306
499,35	23,40975
499,558	79,59054
499,767	17,16721
499,975	104,55862
500,184	33,81387
500,392	42,13708
500,601	58,78326
500,809	40,05629
501,018	33,81387
501,226	15,08635
501,434	60,86401
501,643	-43,17966
501,851	104,55862
502,059	-113,93666
502,268	37,97549
502,476	94,15534
502,684	-7,80339
502,892	71,26769
503,101	-43,17966
503,309	13,00549
503,517	31,73306
503,725	-113,93666
503,933	-32,77472
504,141	-82,7196
504,35	87,91331
504,558	8,84376
504,766	-76,47633
504,974	119,123
505,182	123,28421
505,39	29,65224
505,598	60,86401
505,806	96,236
506,014	48,37944
506,222	87,91331
506,43	-49,42269
506,638	110,80052
506,846	33,81387
507,054	-3,64157
507,262	0,52022
507,47	35,89468
507,678	31,73306
507,886	-84,8007
508,094	-32,77472
508,301	98,31666
508,509	98,31666
508,717	-3,64157
508,925	-3,64157
509,133	-30,69375
509,34	21,32891
509,548	62,94476
509,756	-20,28897
509,964	58,78326
510,171	85,83263
510,379	-49,42269
510,587	33,81387
510,794	87,91331
511,002	-1,56067
511,21	31,73306
511,417	15,08635
511,625	106,63926
511,832	17,16721
512,04	50,46021
512,247	-41,09866
512,455	-28,61278
512,663	166,97571
512,87	85,83263
513,078	94,15534
513,285	73,34841
513,492	-57,74679
513,7	-26,53182
513,907	-55,66576
514,115	-47,34167
514,322	-28,61278
514,529	-34,8557
514,737	21,32891
514,944	-59,82783
515,152	35,89468
515,359	79,59054
515,566	71,26769
515,773	54,62175
515,981	-49,42269
516,188	-180,537
516,395	71,26769
516,602	-3,64157
516,81	37,97549
517,017	23,40975
517,224	85,83263
517,431	8,84376
517,638	37,97549
517,845	21,32891
518,053	75,42912
518,26	15,08635
518,467	-84,8007
518,674	133,68714
518,881	-7,80339
519,088	148,25104
519,295	29,65224
519,502	92,07467
519,709	-51,5037
519,916	60,86401
520,123	17,16721
520,33	37,97549
520,537	-76,47633
520,744	29,65224
520,95	-14,04616
521,157	-1,56067
521,364	112,88115
521,571	-66,07098
521,778	71,26769
521,985	6,76288
522,191	-7,80339
522,398	-3,64157
522,605	-14,04616
522,812	-32,77472
523,019	-91,04404
523,225	-63,98992
523,432	112,88115
523,639	77,50984
523,845	15,08635
524,052	19,24806
524,259	-47,34167
524,465	13,00549
524,672	-72,31417
524,878	0,52022
525,085	-26,53182
525,292	56,70251
525,498	104,55862
525,705	194,02175
525,911	-55,66576
526,118	17,16721
526,324	25,49058
526,531	83,75194
526,737	127,4454
526,944	102,47797
527,15	65,0255
527,356	127,4454
527,563	40,05629
527,769	-47,34167
527,975	81,67124
528,182	75,42912
528,388	65,0255
528,594	71,26769
528,801	85,83263
529,007	-82,7196
529,213	60,86401
529,42	142,0094
529,626	58,78326
529,832	73,34841
530,038	-26,53182
530,244	-18,20802
530,451	-18,20802
530,657	-43,17966
530,863	-24,45086
531,069	-24,45086
531,275	-82,7196
531,481	8,84376
531,687	71,26769
531,893	27,57141
532,099	15,08635
532,305	-34,8557
532,511	-18,20802
532,717	79,59054
532,923	23,40975
533,129	0,52022
533,335	58,78326
533,541	37,97549
533,747	54,62175
533,953	58,78326
534,159	-22,36991
534,365	65,0255
534,571	-3,64157
534,777	87,91331
534,982	27,57141
535,188	-5,72248
535,394	87,91331
535,6	-28,61278
535,806	54,62175
536,011	-55,66576
536,217	56,70251
536,423	100,39732
536,628	4,682
536,834	-41,09866
537,04	6,76288
537,245	33,81387
537,451	2,60111
537,657	71,26769
537,862	-59,82783
538,068	8,84376
538,273	40,05629
538,479	60,86401
538,685	13,00549
538,89	-32,77472
539,096	56,70251
539,301	-20,28897
539,507	15,08635
539,712	79,59054
539,917	-14,04616
540,123	221,06698
540,328	-11,96523
540,534	37,97549
540,739	117,04239
540,944	48,37944
541,15	96,236
541,355	54,62175
541,56	104,55862
541,766	56,70251
541,971	-41,09866
542,176	-16,12709
542,382	37,97549
542,587	17,16721
542,792	133,68714
542,997	48,37944
543,202	15,08635
543,408	-86,88181
543,613	65,0255
543,818	35,89468
544,023	-28,61278
544,228	42,13708
544,433	-3,64157
544,638	58,78326
544,843	-22,36991
545,049	54,62175
545,254	31,73306
545,459	-32,77472
545,664	27,57141
545,869	73,34841
546,074	92,07467
546,279	-41,09866
546,483	73,34841
546,688	-26,53182
546,893	-7,80339
547,098	144,08995
547,303	-55,66576
547,508	0,52022
547,713	54,62175
547,918	23,40975
548,122	-22,36991
548,327	15,08635
548,532	19,24806
548,737	-36,93668
548,942	87,91331
549,146	-18,20802
549,351	58,78326
549,556	10,92463
549,76	-28,61278
549,965	-32,77472
550,17	-3,64157
550,374	19,24806
550,579	-63,98992
550,784	100,39732
550,988	27,57141
551,193	146,1705
551,397	94,15534
551,602	65,0255
551,806	48,37944
552,011	60,86401
552,215	71,26769
552,42	15,08635
552,624	158,65368
552,829	58,78326
553,033	-1,56067
553,238	-3,64157
553,442	25,49058
553,646	56,70251
553,851	81,67124
554,055	196,10218
554,26	92,07467
554,464	177,37813
554,668	179,4586
554,872	295,95724
555,077	250,1917
555,281	314,67885
555,485	427,00058
555,69	553,86654
555,894	624,57153
556,098	614,17405
556,302	724,38175
556,506	743,09506
556,71	790,91641
556,915	876,15765
557,119	824,18212
557,323	1013,36068
557,527	950,99788
557,731	1179,64387
557,935	1241,99356
558,139	1167,17351
558,343	1339,66776
558,547	1420,71017
558,751	1368,76057
558,955	1362,52646
559,159	1483,04658
559,363	1478,89092
559,567	1414,47634
559,771	1447,72303
559,975	1435,25563
560,179	1412,39839
560,382	1443,56724
560,586	1545,37964
560,79	1512,13576
560,994	1406,16452
561,198	1493,43566
561,402	1381,22869
561,605	1489,28004
561,809	1443,56724
562,013	1458,11242
562,217	1493,43566
562,42	1429,02188
562,624	1316,8086
562,828	1377,07266
563,031	1379,15068
563,235	1219,13242
563,439	1293,94898
563,642	1429,02188
563,846	1364,6045
564,049	1476,81309
564,253	1356,29231
564,456	1381,22869
564,66	1343,82392
564,863	1287,71446
565,067	1414,47634
565,27	1358,37037
565,474	1387,4627
565,677	1431,0998
565,881	1393,69667
566,084	1358,37037
566,288	1424,86603
566,491	1339,66776
566,694	1320,96485
566,898	1389,54069
567,101	1441,48935
567,304	1341,74584
567,508	1374,99465
567,711	1435,25563
567,914	1300,18347
568,118	1350,05814
568,321	1279,40171
568,524	1399,93061
568,727	1426,94396
568,93	1416,55429
569,134	1300,18347
569,337	1285,63628
569,54	1341,74584
569,743	1426,94396
569,946	1325,12108
570,149	1374,99465
570,352	1343,82392
570,555	1221,21072
570,758	1397,85263
570,962	1262,77602
571,165	1296,02715
571,368	1339,66776
571,571	1431,0998
571,774	1354,21426
571,976	1372,91662
572,179	1493,43566
572,382	1341,74584
572,585	1449,80091
572,788	1323,04296
572,991	1449,80091
573,194	1343,82392
573,397	1312,65234
573,6	1466,42387
573,802	1474,73525
574,005	1458,11242
574,208	1293,94898
574,411	1393,69667
574,613	1424,86603
574,816	1507,9802
575,019	1512,13576
575,222	1464,34601
575,424	1414,47634
575,627	1557,84585
575,83	1483,04658
576,032	1460,19029
576,235	1441,48935
576,438	1507,9802
576,64	1453,95667
576,843	1503,82464
577,045	1522,52457
577,248	1545,37964
577,45	1607,70937
577,653	1526,68007
577,855	1601,47655
578,058	1416,55429
578,26	1543,30192
578,463	1578,62257
578,665	1568,23426
578,868	1493,43566
579,07	1582,77788
579,272	1576,54492
579,475	1439,41144
579,677	1522,52457
579,879	1505,90242
580,082	1512,13576
580,284	1505,90242
580,486	1495,51346
580,689	1557,84585
580,891	1616,01975
581,093	1688,7331
581,295	1686,65564
581,498	1497,59126
581,7	1640,95055
581,902	1487,20222
582,104	1611,86457
582,306	1622,2525
582,508	1649,26069
582,71	1707,4301
582,913	1746,90058
583,115	1618,09734
583,317	1724,04941
583,519	1769,75131
583,721	1690,81056
583,923	1744,82322
584,125	1755,20999
584,327	1778,06057
584,529	1701,1978
584,731	1724,04941
584,933	1784,29247
585,135	1736,51374
585,336	1655,49327
585,538	1809,21975
585,74	1761,44201
585,942	1780,13787
586,144	1755,20999
586,346	1782,21517
586,547	1842,45532
586,749	1721,97201
586,951	1711,58495
587,153	1811,297
587,355	1765,59667
587,556	1958,77267
587,758	1640,95055
587,96	1742,74585
588,161	1825,83765
588,363	1827,91487
588,565	1767,67399
588,766	1952,54167
588,968	1871,5357
589,17	2012,77341
589,371	1838,30092
589,573	1904,76957
589,774	1954,61867
589,976	1765,59667
590,177	1881,92138
590,379	1940,07956
590,58	1861,14993
590,782	1886,07563
590,983	2151,91827
591,185	1998,23498
591,386	1994,08111
591,587	2054,31082
591,789	2021,081
591,99	1896,46119
592,192	1935,9255
592,393	1958,77267
592,594	1998,23498
592,796	2052,23398
592,997	2097,92361
593,198	2079,2326
593,399	2100,00037
593,601	2193,45104
593,802	2050,15714
594,003	2064,69496
594,204	2039,77288
594,405	2245,36507
594,607	2162,30159
594,808	2270,28304
595,009	2234,98243
595,21	2251,59461
595,411	2210,06376
595,612	2243,28855
595,813	2230,82936
596,014	2257,82411
596,215	2245,36507
596,416	2183,06798
596,617	2158,14828
596,818	2234,98243
597,019	2295,20051
597,22	2164,37825
597,421	2282,74184
597,622	2237,05897
597,823	2353,33938
598,024	2293,12408
598,225	2210,06376
598,426	2324,27028
598,627	2318,0411
598,827	2309,73548
599,028	2286,89474
599,229	2295,20051
599,43	2241,21202
599,63	2282,74184
599,831	2448,84745
600,032	2430,16166
600,233	2293,12408
600,433	2320,1175
600,634	2390,71296
600,835	2349,1867
601,035	2463,38066
601,236	2299,35338
601,437	2334,65218
601,637	2149,8416
601,838	2345,03399
602,038	2347,11035
602,239	2178,91473
602,439	2195,52764
602,64	2299,35338
602,841	2276,51245
603,041	2081,30939
603,241	2073,0022
603,442	2251,59461
603,642	2075,07901
603,843	2129,07466
604,043	2201,75743
604,244	2210,06376
604,444	1992,00417
604,644	2062,61814
604,845	2035,61916
605,045	2083,38618
605,245	2037,69602
605,446	2104,15388
605,646	2064,69496
605,846	1987,85029
606,046	1900,61538
606,247	2002,38883
606,447	2143,61155
606,647	1911,00082
606,847	1798,83344
607,047	2008,61959
607,248	2008,61959
607,448	2012,77341
607,648	1859,07276
607,848	1890,22986
608,048	1842,45532
608,248	1829,99209
608,448	1782,21517
608,648	1913,07789
608,848	1827,91487
609,048	1667,95831
609,248	1832,0693
609,448	1815,45149
609,648	1840,37812
609,848	1792,60162
610,048	1842,45532
610,248	1740,66848
610,448	1661,72581
610,648	1603,55416
610,847	1784,29247
611,047	1680,42323
611,247	1678,34575
611,447	1688,7331
611,647	1738,59111
611,846	1663,80331
612,046	1582,77788
612,246	1501,74685
612,446	1678,34575
612,645	1628,48522
612,845	1616,01975
613,045	1686,65564
613,244	1559,92354
613,444	1676,26827
613,644	1572,3896
613,843	1503,82464
614,043	1534,99103
614,243	1460,19029
614,442	1576,54492
614,642	1474,73525
614,841	1456,03455
615,041	1580,70023
615,24	1559,92354
615,44	1618,09734
615,639	1516,29129
615,839	1520,44682
616,038	1541,22421
616,237	1526,68007
616,437	1547,45735
616,636	1404,08655
616,836	1501,74685
617,035	1503,82464
617,234	1518,36906
617,434	1524,60232
617,633	1522,52457
617,832	1460,19029
618,032	1476,81309
618,231	1439,41144
618,43	1474,73525
618,629	1578,62257
618,828	1472,65741
619,028	1584,85552
619,227	1462,26815
619,426	1453,95667
619,625	1393,69667
619,824	1495,51346
620,023	1323,04296
620,222	1522,52457
620,422	1293,94898
620,621	1468,50172
620,82	1335,51158
621,019	1470,57957
621,218	1225,36732
621,417	1302,26162
621,616	1281,4799
621,815	1235,75875
622,014	1327,19919
622,213	1117,29065
622,411	1244,07183
622,61	1308,49607
622,809	1302,26162
623,008	1406,16452
623,207	1433,17772
623,406	1293,94898
623,605	1175,4871
623,803	1293,94898
624,002	1241,99356
624,201	1250,30659
624,4	1144,31081
624,598	1254,46308
624,797	1289,79264
624,996	1362,52646
625,195	1221,21072
625,393	1140,15391
625,592	1202,50583
625,791	1167,17351
625,989	1194,19244
626,188	1185,879
626,386	1192,11409
626,585	1190,03573
626,784	1100,66252
626,982	1086,11271
627,181	1102,74105
627,379	1246,15009
627,578	1025,83281
627,776	1050,77662
627,975	1106,8981
628,173	1052,85525
628,371	1160,93827
628,57	1108,97662
628,768	1158,85985
628,967	1129,76158
629,165	1156,78143
629,363	1148,4677
629,562	1217,05411
629,76	1084,03415
629,958	1206,6625
630,157	1154,703
630,355	1121,44764
630,553	1092,34837
630,751	1042,46208
630,95	1079,87701
631,148	1094,42691
631,346	1177,56548
631,544	963,47073
631,742	1046,61936
631,94	1127,6831
632,139	1036,22613
632,337	1086,11271
632,535	1069,4841
632,733	1019,59676
632,931	1206,6625
633,129	1127,6831
633,327	1048,69799
633,525	1032,06882
633,723	1081,95558
633,921	1063,24831
634,119	1048,69799
634,317	975,94344
634,515	1113,13364
634,713	1121,44764
634,91	1065,32691
635,108	1054,93387
635,306	1117,29065
635,504	1094,42691
635,702	1077,79844
635,9	1017,51807
636,097	1140,15391
636,295	1108,97662
636,493	1065,32691
636,691	973,86466
636,888	1050,77662
637,086	1034,14748
637,284	1029,99015
637,482	984,25849
637,679	1163,01669
637,877	1133,91852
638,075	1138,07545
638,272	1019,59676
638,47	1042,46208
638,667	1007,12457
638,865	909,42063
639,062	1135,99699
639,26	1106,8981
639,457	1059,0911
639,655	1063,24831
639,852	1046,61936
640,05	1098,58399
640,247	1067,40551
640,445	1046,61936
640,642	1111,05513
640,84	1048,69799
641,037	1034,14748
641,234	967,62832
641,432	1023,75413
641,629	1119,36915
641,826	1167,17351
642,024	1088,19126
642,221	1079,87701
642,418	1046,61936
642,615	874,07868
642,813	1158,85985
643,01	1052,85525
643,207	1127,6831
643,404	1077,79844
643,602	1042,46208
643,799	1000,88841
643,996	1115,21215
644,193	1002,96714
644,39	1131,84005
644,587	1121,44764
644,784	1050,77662
644,981	980,10097
645,178	1081,95558
645,375	1187,95736
645,572	1077,79844
645,769	1042,46208
645,966	1069,4841
646,163	1175,4871
646,36	1135,99699
646,557	1032,06882
646,754	1113,13364
646,951	1036,22613
647,148	1138,07545
647,345	1140,15391
647,542	1129,76158
647,738	1144,31081
647,935	969,7071
648,132	1069,4841
648,329	1096,50545
648,526	1202,50583
648,722	1106,8981
648,919	1036,22613
649,116	1077,79844
649,312	1036,22613
649,509	1094,42691
649,706	1129,76158
649,902	1023,75413
650,099	1023,75413
650,296	1040,38344
650,492	1002,96714
650,689	986,33725
650,885	988,416
651,082	1096,50545
651,278	1084,03415
651,475	1127,6831
651,671	1111,05513
651,868	1040,38344
652,064	1115,21215
652,261	1005,04585
652,457	1057,01249
652,654	1065,32691
652,85	1067,40551
653,047	921,89398
653,243	1057,01249
653,439	1084,03415
653,636	971,78588
653,832	1075,71986
654,028	1140,15391
654,224	938,52487
654,421	1029,99015
654,617	1019,59676
654,813	996,73096
655,009	1029,99015
655,206	894,86821
655,402	982,17974
655,598	928,1306
655,794	1081,95558
655,99	1007,12457
656,186	965,54952
656,383	1005,04585
656,579	940,60372
656,775	967,62832
656,971	851,20972
657,167	896,94714
657,363	994,65222
657,559	884,4735
657,755	934,36718
657,951	967,62832
658,147	948,91905
658,343	890,71034
658,539	842,89361
658,735	871,99971
658,93	863,68376
659,126	917,73621
659,322	817,94488
659,518	859,52577
659,714	928,1306
659,91	899,02607
660,105	822,10305
660,301	917,73621
660,497	871,99971
660,693	1036,22613
660,888	842,89361
661,084	865,76276
661,28	813,7867
661,476	886,55245
661,671	753,4912
661,867	851,20972
662,062	738,93658
662,258	761,80803
662,454	815,8658
662,649	865,76276
662,845	901,10499
663,04	795,07469
663,236	919,8151
663,431	892,78928
663,627	780,52066
663,822	730,61956
664,018	778,44149
664,213	790,91641
664,409	805,47029
664,604	795,07469
664,799	803,39118
664,995	749,33276
665,19	743,09506
665,386	761,80803
665,581	716,06461
665,776	728,54029
665,972	713,98531
666,167	622,49204
666,362	674,47788
666,557	701,50945
666,753	840,81458
666,948	678,63663
667,143	820,02397
667,338	938,52487
667,533	730,61956
667,728	768,04561
667,924	824,18212
668,119	716,06461
668,314	703,58877
668,509	703,58877
668,704	693,19212
668,899	701,50945
669,094	614,17405
669,289	645,36614
669,484	678,63663
669,679	626,65101
669,874	701,50945
670,069	670,31911
670,264	666,16033
670,459	695,27146
670,654	697,35079
670,849	605,856
671,043	612,09454
671,238	605,856
671,433	628,73048
671,628	612,09454
671,823	716,06461
672,018	720,22319
672,212	653,68387
672,407	537,22934
672,602	637,04835
672,797	564,26465
672,991	682,79536
673,186	562,18504
673,381	624,57153
673,575	686,95408
673,77	587,14011
673,965	605,856
674,159	645,36614
674,354	626,65101
674,548	624,57153
674,743	728,54029
674,937	732,69882
675,132	628,73048
675,326	651,60444
675,521	593,37878
675,715	666,16033
675,91	659,92212
676,104	578,82182
676,299	493,55531
676,493	659,92212
676,687	530,99031
676,882	560,10542
677,076	541,38866
677,271	514,35271
677,465	510,19326
677,659	528,91062
677,853	555,94617
678,048	568,42387
678,242	703,58877
678,436	526,83094
678,63	620,41255
678,825	478,99686
679,019	618,33305
679,213	549,70727
679,407	539,309
679,601	678,63663
679,795	499,79457
679,99	630,80996
680,184	526,83094
680,378	537,22934
680,572	591,29923
680,766	576,74224
680,96	433,24029
681,154	468,59783
681,348	691,11278
681,542	543,46832
681,736	460,27852
681,93	555,94617
682,124	476,91706
682,317	435,32018
682,511	551,78691
682,705	472,75745
682,899	478,99686
683,093	510,19326
683,287	510,19326
683,481	439,47995
683,674	549,70727
683,868	503,95406
684,062	451,95915
684,256	427,00058
684,449	503,95406
684,643	539,309
684,837	454,039
685,03	543,46832
685,224	472,75745
685,418	516,43242
685,611	499,79457
685,805	533,06999
685,999	576,74224
686,192	437,40006
686,386	435,32018
686,579	493,55531
686,773	530,99031
686,966	397,88143
687,16	503,95406
687,353	493,55531
687,547	639,1278
687,74	483,15644
687,934	516,43242
688,127	495,63507
688,32	447,79943
688,514	433,24029
688,707	410,36117
688,9	514,35271
689,094	487,316
689,287	503,95406
689,48	343,8006
689,674	439,47995
689,867	516,43242
690,06	329,23984
690,253	391,64149
690,447	481,07665
690,64	458,19869
690,833	510,19326
691,026	591,29923
691,219	464,43818
691,412	404,12132
691,605	514,35271
691,799	451,95915
691,992	389,5615
692,185	441,55983
692,378	433,24029
692,571	429,08049
692,764	485,23622
692,957	429,08049
693,15	435,32018
693,343	397,88143
693,536	429,08049
693,729	506,0338
693,921	558,0258
694,114	406,20128
694,307	412,44112
694,5	420,76084
694,693	454,039
694,886	422,84076
695,079	391,64149
695,271	420,76084
695,464	487,316
695,657	420,76084
695,85	370,8414
696,042	322,99944
696,235	416,60099
696,428	370,8414
696,62	433,24029
696,813	424,92067
697,006	433,24029
697,198	314,67885
697,391	320,9193
697,584	439,47995
697,776	360,44119
697,969	481,07665
698,161	503,95406
698,354	383,32151
698,546	424,92067
698,739	464,43818
698,931	399,9614
699,124	474,83726
699,316	422,84076
699,509	368,76137
699,701	466,51801
699,893	514,35271
700,086	310,51853
700,278	375,00146
700,47	439,47995
700,663	493,55531
700,855	345,88069
701,047	427,00058
701,24	397,88143
701,432	262,67344
701,624	397,88143
701,816	337,5603
702,008	414,52105
702,201	350,04085
702,393	524,75124
702,585	341,7205
702,777	487,316
702,969	375,00146
703,161	468,59783
703,353	410,36117
703,546	385,40151
703,738	424,92067
703,93	435,32018
704,122	318,83916
704,314	377,08148
704,506	468,59783
704,698	385,40151
704,89	302,19782
705,082	481,07665
705,273	381,2415
705,465	281,39573
705,657	377,08148
705,849	364,60129
706,041	391,64149
706,233	441,55983
706,425	320,9193
706,616	372,92143
706,808	454,039
707	364,60129
707,192	343,8006
707,383	408,28123
707,575	445,71957
707,767	350,04085
707,959	466,51801
708,15	327,15971
708,342	360,44119
708,534	499,79457
708,725	385,40151
708,917	418,68092
709,108	427,00058
709,3	314,67885
709,491	273,07476
709,683	339,6404
709,875	322,99944
710,066	427,00058
710,258	329,23984
710,449	250,1917
710,64	391,64149
710,832	487,316
711,023	314,67885
711,215	458,19869
711,406	364,60129
711,597	389,5615
711,789	316,75901
711,98	416,60099
712,171	385,40151
712,363	404,12132
712,554	291,79683
712,745	335,48019
712,937	318,83916
713,128	318,83916
713,319	424,92067
713,51	314,67885
713,701	256,43259
713,893	489,39577
714,084	393,72147
714,275	322,99944
714,466	391,64149
714,657	312,59869
714,848	291,79683
715,039	385,40151
715,23	304,278
715,421	377,08148
715,612	325,07958
715,803	385,40151
715,994	293,87704
716,185	470,67764
716,376	281,39573
716,567	364,60129
716,758	277,23525
716,949	243,95077
717,14	429,08049
717,331	366,68133
717,522	375,00146
717,712	331,31996
717,903	298,03744
718,094	379,16149
718,285	372,92143
718,476	485,23622
718,666	254,3523
718,857	329,23984
719,048	287,63641
719,238	350,04085
719,429	318,83916
719,62	316,75901
719,81	233,54912
720,001	304,278
720,192	302,19782
720,382	281,39573
720,573	281,39573
720,763	206,50427
720,954	229,38842
721,144	248,1114
721,335	341,7205
721,525	275,15501
721,716	308,43836
721,906	291,79683
722,097	254,3523
722,287	389,5615
722,478	268,91425
722,668	339,6404
722,858	235,62946
723,049	325,07958
723,239	312,59869
723,429	281,39573
723,62	279,31549
723,81	231,46877
724	268,91425
724,191	304,278
724,381	300,11763
724,571	329,23984
724,761	300,11763
724,951	281,39573
725,142	283,47596
725,332	185,69998
725,522	304,278
725,712	381,2415
725,902	179,4586
726,092	218,98661
726,282	273,07476
726,472	279,31549
726,662	358,36113
726,852	258,51288
727,042	231,46877
727,232	241,87045
727,422	308,43836
727,612	406,20128
727,802	273,07476
727,992	308,43836
728,182	273,07476
728,372	210,66506
728,562	212,74546
728,752	246,03109
728,942	223,14735
729,131	287,63641
729,321	256,43259
729,511	250,1917
729,701	416,60099
729,89	262,67344
730,08	204,42386
730,27	221,06698
730,46	260,59316
730,649	202,34345
730,839	225,22771
731,029	187,78043
731,218	200,26303
731,408	194,02175
731,597	302,19782
731,787	260,59316
731,977	337,5603
732,166	318,83916
732,356	127,4454
732,545	264,75371
732,735	206,50427
732,924	166,97571
733,114	273,07476
733,303	185,69998
733,492	275,15501
733,682	312,59869
733,871	223,14735
734,061	183,61952
734,25	331,31996
734,439	189,86087
734,629	171,13669
734,818	237,70979
735,007	164,89521
735,197	187,78043
735,386	158,65368
735,575	100,39732
735,764	204,42386
735,954	241,87045
736,143	162,81471
736,332	260,59316
736,521	169,0562
736,71	175,29765
736,899	114,96177
737,088	183,61952
737,278	185,69998
737,467	264,75371
737,656	144,08995
737,845	225,22771
738,034	231,46877
738,223	144,08995
738,412	241,87045
738,601	102,47797
738,79	189,86087
738,979	183,61952
739,168	77,50984
739,356	210,66506
739,545	181,53906
739,734	196,10218
739,923	177,37813
740,112	243,95077
740,301	123,28421
740,489	212,74546
740,678	92,07467
740,867	231,46877
741,056	189,86087
741,245	175,29765
741,433	250,1917
741,622	169,0562
741,811	200,26303
741,999	300,11763
742,188	177,37813
742,377	227,30807
742,565	194,02175
742,754	156,57316
742,942	114,96177
743,131	119,123
743,319	169,0562
743,508	98,31666
743,697	187,78043
743,885	196,10218
744,073	152,41211
744,262	98,31666
744,45	175,29765
744,639	187,78043
744,827	83,75194
745,016	185,69998
745,204	200,26303
745,392	152,41211
745,581	270,9945
745,769	181,53906
745,957	102,47797
746,146	194,02175
746,334	169,0562
746,522	100,39732
746,71	150,33158
746,899	223,14735
747,087	139,92884
747,275	185,69998
747,463	98,31666
747,651	227,30807
747,84	121,20361
748,028	179,4586
748,216	156,57316
748,404	208,58467
748,592	248,1114
748,78	221,06698
748,968	112,88115
749,156	191,94132
749,344	139,92884
749,532	108,71989
749,72	154,49264
749,908	171,13669
750,096	144,08995
750,284	162,81471
750,472	214,82584
750,66	191,94132
750,847	183,61952
751,035	214,82584
751,223	162,81471
751,411	241,87045
751,599	177,37813
751,787	148,25104
751,974	270,9945
752,162	142,0094
752,35	-1,56067
752,537	156,57316
752,725	175,29765
752,913	216,90623
753,101	223,14735
753,288	146,1705
753,476	258,51288
753,663	148,25104
753,851	148,25104
754,039	108,71989
754,226	208,58467
754,414	152,41211
754,601	166,97571
754,789	100,39732
754,976	148,25104
755,164	210,66506
755,351	48,37944
755,539	144,08995
755,726	148,25104
755,913	100,39732
756,101	181,53906
756,288	108,71989
756,476	169,0562
756,663	142,0094
756,85	110,80052
757,037	146,1705
757,225	44,21787
757,412	6,76288
757,599	85,83263
757,787	385,40151
757,974	108,71989
758,161	119,123
758,348	171,13669
758,535	114,96177
758,722	194,02175
758,91	110,80052
759,097	56,70251
759,284	75,42912
759,471	96,236
759,658	73,34841
759,845	156,57316
760,032	187,78043
760,219	148,25104
760,406	171,13669
760,593	166,97571
760,78	71,26769
760,967	75,42912
761,154	129,52598
761,341	100,39732
761,528	181,53906
761,715	187,78043
761,901	110,80052
762,088	112,88115
762,275	52,54098
762,462	112,88115
762,649	187,78043
762,835	60,86401
763,022	221,06698
763,209	94,15534
763,396	92,07467
763,582	187,78043
763,769	85,83263
763,956	71,26769
764,142	69,18696
764,329	160,7342
764,516	158,65368
764,702	65,0255
764,889	142,0094
765,075	81,67124
765,262	131,60656
765,448	181,53906
765,635	171,13669
765,821	169,0562
766,008	117,04239
766,194	175,29765
766,381	71,26769
766,567	196,10218
766,754	69,18696
766,94	85,83263
767,127	144,08995
767,313	79,59054
767,499	216,90623
767,686	144,08995
767,872	152,41211
768,058	123,28421
768,244	129,52598
768,431	52,54098
768,617	106,63926
768,803	131,60656
768,989	50,46021
769,176	112,88115
769,362	77,50984
769,548	87,91331
769,734	67,10623
769,92	98,31666
770,106	146,1705
770,292	114,96177
770,478	87,91331
770,664	81,67124
770,851	100,39732
771,037	62,94476
771,223	121,20361
771,409	104,55862
771,594	117,04239
771,78	152,41211
771,966	129,52598
772,152	54,62175
772,338	137,84828
772,524	177,37813
772,71	27,57141
772,896	191,94132
773,082	175,29765
773,267	67,10623
773,453	40,05629
773,639	48,37944
773,825	56,70251
774,011	-9,88431
774,196	44,21787
774,382	112,88115
774,568	92,07467
774,753	117,04239
774,939	154,49264
775,125	10,92463
775,31	133,68714
775,496	-1,56067
775,681	114,96177
775,867	104,55862
776,053	152,41211
776,238	56,70251
776,424	146,1705
776,609	46,29866
776,795	96,236
776,98	148,25104
777,166	108,71989
777,351	42,13708
777,536	129,52598
777,722	54,62175
777,907	146,1705
778,093	69,18696
778,278	31,73306
778,463	117,04239
778,649	112,88115
778,834	108,71989
779,019	69,18696
779,204	67,10623
779,39	119,123
779,575	83,75194
779,76	139,92884
779,945	164,89521
780,13	131,60656
780,316	194,02175
780,501	-30,69375
780,686	54,62175
780,871	92,07467
781,056	125,3648
781,241	139,92884
781,426	148,25104
781,611	83,75194
781,796	-1,56067
781,981	73,34841
782,166	79,59054
782,351	92,07467
782,536	89,99399
782,721	71,26769
782,906	37,97549
783,091	92,07467
783,276	31,73306
783,461	183,61952
783,646	191,94132
783,83	21,32891
784,015	89,99399
784,2	71,26769
784,385	148,25104
784,57	81,67124
784,754	92,07467
784,939	-7,80339
785,124	108,71989
785,308	125,3648
785,493	-36,93668
785,678	60,86401
785,862	94,15534
786,047	94,15534
786,232	131,60656
786,416	13,00549
786,601	44,21787
786,785	60,86401
786,97	15,08635
787,154	79,59054
787,339	117,04239
787,523	206,50427
787,708	77,50984
787,892	0,52022
788,077	154,49264
788,261	-9,88431
788,446	108,71989
788,63	77,50984
788,814	-34,8557
788,999	46,29866
789,183	129,52598
789,367	27,57141
789,552	106,63926
789,736	175,29765
789,92	83,75194
790,104	137,84828
790,289	81,67124
790,473	-20,28897
790,657	27,57141
790,841	56,70251
791,025	83,75194
791,21	54,62175
791,394	33,81387
791,578	60,86401
791,762	104,55862
791,946	-5,72248
792,13	17,16721
792,314	214,82584
792,498	27,57141
792,682	87,91331
792,866	27,57141
793,05	98,31666
793,234	129,52598
793,418	23,40975
793,602	125,3648
793,786	-1,56067
793,97	8,84376
794,153	158,65368
794,337	-28,61278
794,521	73,34841
794,705	96,236
794,889	69,18696
795,073	6,76288
795,256	96,236
795,44	87,91331
795,624	108,71989
795,807	218,98661
795,991	17,16721
796,175	108,71989
796,358	142,0094
796,542	94,15534
796,726	248,1114
796,909	6,76288
797,093	148,25104
797,277	52,54098
797,46	-9,88431
797,644	46,29866
797,827	17,16721
798,011	-20,28897
798,194	77,50984
798,378	50,46021
798,561	104,55862
798,744	89,99399
798,928	112,88115
799,111	27,57141
799,295	52,54098
799,478	112,88115
799,661	21,32891
799,845	4,682
800,028	48,37944
800,211	10,92463
800,395	67,10623
800,578	25,49058
800,761	171,13669
800,944	46,29866
801,127	48,37944
801,311	15,08635
801,494	2,60111
801,677	-41,09866
801,86	42,13708
802,043	50,46021
802,226	96,236
802,409	144,08995
802,593	19,24806
802,776	15,08635
802,959	65,0255
803,142	-28,61278
803,325	56,70251
803,508	-55,66576
803,691	121,20361
803,874	-28,61278
804,056	75,42912
804,239	71,26769
804,422	98,31666
804,605	-20,28897
804,788	62,94476
804,971	106,63926
805,154	37,97549
805,336	142,0094
805,519	37,97549
805,702	54,62175
805,885	21,32891
806,068	25,49058
806,25	81,67124
806,433	142,0094
806,616	17,16721
806,798	67,10623
806,981	31,73306
807,164	29,65224
807,346	35,89468
807,529	31,73306
807,711	69,18696
807,894	17,16721
808,076	17,16721
808,259	60,86401
808,442	8,84376
808,624	-1,56067
808,806	119,123
808,989	94,15534
809,171	102,47797
809,354	-1,56067
809,536	125,3648
809,719	60,86401
809,901	65,0255
810,083	106,63926
810,266	92,07467
810,448	15,08635
810,63	44,21787
810,813	46,29866
810,995	62,94476
811,177	148,25104
811,359	100,39732
811,542	135,76771
811,724	137,84828
811,906	50,46021
812,088	-11,96523
812,27	44,21787
812,452	-22,36991
812,634	46,29866
812,817	69,18696
812,999	200,26303
813,181	48,37944
813,363	164,89521
813,545	83,75194
813,727	35,89468
813,909	-14,04616
814,091	46,29866
814,273	50,46021
814,455	69,18696
814,637	15,08635
814,818	148,25104
815	17,16721
815,182	81,67124
815,364	15,08635
815,546	54,62175
815,728	92,07467
815,909	2,60111
816,091	96,236
816,273	-11,96523
816,455	75,42912
816,636	69,18696
816,818	27,57141
817	33,81387
817,182	17,16721
817,363	98,31666
817,545	77,50984
817,726	148,25104
817,908	164,89521
818,09	6,76288
818,271	117,04239
818,453	10,92463
818,634	25,49058
818,816	-36,93668
818,997	58,78326
819,179	85,83263
819,36	27,57141
819,542	48,37944
819,723	112,88115
819,905	31,73306
820,086	102,47797
820,267	114,96177
820,449	-41,09866
820,63	54,62175
820,811	37,97549
820,993	77,50984
821,174	358,36113
821,355	6,76288
821,536	42,13708
821,718	46,29866
821,899	-30,69375
822,08	-26,53182
822,261	54,62175
822,442	-1,56067
822,624	171,13669
822,805	23,40975
822,986	-41,09866
823,167	-32,77472
823,348	54,62175
823,529	46,29866
823,71	87,91331
823,891	40,05629
824,072	65,0255
824,253	50,46021
824,434	179,4586
824,615	71,26769
824,796	58,78326
824,977	83,75194
825,158	15,08635
825,339	-24,45086
825,52	0,52022
825,7	73,34841
825,881	31,73306
826,062	37,97549
826,243	52,54098
826,424	106,63926
826,604	-66,07098
826,785	-24,45086
826,966	87,91331
827,147	23,40975
827,327	58,78326
827,508	23,40975
827,689	131,60656
827,869	-24,45086
828,05	67,10623
828,231	31,73306
828,411	100,39732
828,592	42,13708
828,772	77,50984
828,953	-84,8007
829,133	42,13708
829,314	119,123
829,494	-39,01767
829,675	102,47797
829,855	-20,28897
830,036	-18,20802
830,216	56,70251
830,396	10,92463
830,577	48,37944
830,757	58,78326
830,938	-99,36855
831,118	4,682
831,298	27,57141
831,479	33,81387
831,659	60,86401
831,839	-80,6385
832,019	71,26769
832,199	19,24806
832,38	44,21787
832,56	19,24806
832,74	123,28421
832,92	62,94476
833,1	-55,66576
833,28	-80,6385
833,461	81,67124
833,641	0,52022
833,821	13,00549
834,001	23,40975
834,181	164,89521
834,361	37,97549
834,541	35,89468
834,721	-3,64157
834,901	25,49058
835,081	50,46021
835,261	92,07467
835,44	35,89468
835,62	-70,2331
835,8	2,60111
835,98	123,28421
836,16	119,123
836,34	10,92463
836,52	-20,28897
836,699	-1,56067
836,879	79,59054
837,059	60,86401
837,239	73,34841
837,418	-32,77472
837,598	-7,80339
837,778	129,52598
837,957	-105,612
838,137	29,65224
838,317	27,57141
838,496	-1,56067
838,676	17,16721
838,855	56,70251
839,035	133,68714
839,214	-34,8557
839,394	50,46021
839,573	-18,20802
839,753	58,78326
839,932	40,05629
840,112	-36,93668
840,291	152,41211
840,471	108,71989
840,65	40,05629
840,829	54,62175
841,009	96,236
841,188	85,83263
841,367	15,08635
841,547	0,52022
841,726	-74,39525
841,905	17,16721
842,085	-9,88431
842,264	79,59054
842,443	23,40975
842,622	73,34841
842,801	-26,53182
842,981	-45,26066
843,16	13,00549
843,339	-11,96523
843,518	37,97549
843,697	112,88115
843,876	29,65224
844,055	-41,09866
844,234	67,10623
844,413	-3,64157
844,592	8,84376
844,771	-61,90887
844,95	65,0255
845,129	-34,8557
845,308	33,81387
845,487	48,37944
845,666	58,78326
845,845	-53,58473
846,024	4,682
846,202	-1,56067
846,381	21,32891
846,56	2,60111
846,739	58,78326
846,918	-82,7196
847,096	-16,12709
847,275	133,68714
847,454	19,24806
847,633	85,83263
847,811	102,47797
847,99	40,05629
848,169	15,08635
848,347	52,54098
848,526	60,86401
848,704	-18,20802
848,883	142,0094
849,062	54,62175
849,24	65,0255
849,419	194,02175
849,597	-61,90887
849,776	23,40975
849,954	0,52022
850,133	112,88115
850,311	52,54098
850,49	71,26769
850,668	-20,28897
850,846	23,40975
851,025	-24,45086
851,203	-5,72248
851,381	100,39732
851,56	-7,80339
851,738	0,52022
851,916	48,37944
852,095	15,08635
852,273	-5,72248
852,451	114,96177
852,629	-22,36991
852,807	108,71989
852,986	54,62175
853,164	-5,72248
853,342	33,81387
853,52	-14,04616
853,698	19,24806
853,876	0,52022
854,054	135,76771
854,232	81,67124
854,41	106,63926
854,588	27,57141
854,766	-9,88431
854,944	48,37944
855,122	87,91331
855,3	171,13669
855,478	-30,69375
855,656	150,33158
855,834	79,59054
856,012	37,97549
856,19	-16,12709
856,368	19,24806
856,545	31,73306
856,723	117,04239
856,901	108,71989
857,079	10,92463
857,256	-30,69375
857,434	54,62175
857,612	-5,72248
857,79	-47,34167
857,967	-14,04616
858,145	23,40975
858,323	4,682
858,5	52,54098
858,678	35,89468
858,855	35,89468
859,033	87,91331
859,211	-41,09866
859,388	56,70251
859,566	73,34841
859,743	27,57141
859,921	46,29866
860,098	69,18696
860,276	4,682
860,453	-7,80339
860,63	-47,34167
860,808	0,52022
860,985	15,08635
861,162	-7,80339
861,34	6,76288
861,517	94,15534
861,694	10,92463
861,872	-20,28897
862,049	81,67124
862,226	21,32891
862,403	35,89468
862,581	-9,88431
862,758	-11,96523
862,935	-20,28897
863,112	92,07467
863,289	15,08635
863,467	75,42912
863,644	8,84376
863,821	0,52022
863,998	-9,88431
864,175	96,236
864,352	-9,88431
864,529	110,80052
864,706	-51,5037
864,883	21,32891
865,06	-57,74679
865,237	29,65224
865,414	-34,8557
865,591	17,16721
865,768	83,75194
865,944	139,92884
866,121	162,81471
866,298	87,91331
866,475	35,89468
866,652	-14,04616
866,829	-20,28897
867,005	4,682
867,182	-16,12709
867,359	56,70251
867,536	77,50984
867,712	4,682
867,889	37,97549
868,066	48,37944
868,242	62,94476
868,419	-34,8557
868,596	-24,45086
868,772	-57,74679
868,949	75,42912
869,125	25,49058
869,302	117,04239
869,478	-47,34167
869,655	89,99399
869,831	-22,36991
870,008	56,70251
870,184	139,92884
870,361	-59,82783
870,537	13,00549
870,714	52,54098
870,89	71,26769
871,066	25,49058
871,243	92,07467
871,419	54,62175
871,595	56,70251
871,772	33,81387
871,948	73,34841
872,124	-30,69375
872,3	33,81387
872,477	54,62175
872,653	23,40975
872,829	112,88115
873,005	10,92463
873,181	10,92463
873,357	-57,74679
873,533	112,88115
873,71	25,49058
873,886	-26,53182
874,062	-22,36991
874,238	73,34841
874,414	0,52022
874,59	-18,20802
874,766	-57,74679
874,942	89,99399
875,118	-16,12709
875,294	-47,34167
875,47	21,32891
875,645	-5,72248
875,821	25,49058
875,997	48,37944
876,173	-39,01767
876,349	-49,42269
876,525	-9,88431
876,7	48,37944
876,876	-3,64157
877,052	6,76288
877,228	23,40975
877,403	-45,26066
877,579	25,49058
877,755	21,32891
877,931	-11,96523
878,106	29,65224
878,282	-36,93668
878,457	-1,56067
878,633	-36,93668
878,809	87,91331
878,984	-11,96523
879,16	-49,42269
879,335	-41,09866
879,511	-41,09866
879,686	-32,77472
879,862	33,81387
880,037	-5,72248
880,213	10,92463
880,388	52,54098
880,563	-18,20802
880,739	-26,53182
880,914	-88,96292
881,089	27,57141
881,265	27,57141
881,44	4,682
881,615	75,42912
881,791	-5,72248
881,966	23,40975
882,141	2,60111
882,316	100,39732
882,492	-14,04616
882,667	-63,98992
882,842	25,49058
883,017	-34,8557
883,192	-9,88431
883,367	56,70251
883,542	-14,04616
883,718	-72,31417
883,893	17,16721
884,068	-49,42269
884,243	17,16721
884,418	-18,20802
884,593	6,76288
884,768	-22,36991
884,943	-26,53182
885,117	6,76288
885,292	-11,96523
885,467	92,07467
885,642	-5,72248
885,817	133,68714
885,992	42,13708
886,167	25,49058
886,342	114,96177
886,516	-30,69375
886,691	102,47797
886,866	-34,8557
887,041	139,92884
887,215	71,26769
887,39	6,76288
887,565	48,37944
887,739	-70,2331
887,914	33,81387
888,089	0,52022
888,263	13,00549
888,438	-61,90887
888,612	133,68714
888,787	-30,69375
888,962	19,24806
889,136	-3,64157
889,311	-78,55741
889,485	23,40975
889,659	-18,20802
889,834	-5,72248
890,008	-32,77472
890,183	-36,93668
890,357	-49,42269
890,532	-41,09866
890,706	119,123
890,88	-9,88431
891,055	29,65224
891,229	52,54098
891,403	10,92463
891,577	35,89468
891,752	-11,96523
891,926	129,52598
892,1	-22,36991
892,274	73,34841
892,449	-5,72248
892,623	-3,64157
892,797	71,26769
892,971	56,70251
893,145	4,682
893,319	40,05629
893,493	100,39732
893,667	37,97549
893,841	79,59054
894,015	17,16721
894,189	-32,77472
894,363	110,80052
894,537	13,00549
894,711	13,00549
894,885	81,67124
895,059	10,92463
895,233	-101,4497
895,407	-70,2331
895,581	21,32891
895,755	-36,93668
895,928	-80,6385
896,102	-74,39525
896,276	71,26769
896,45	29,65224
896,623	58,78326
896,797	15,08635
896,971	94,15534
897,145	75,42912
897,318	62,94476
897,492	135,76771
897,666	-74,39525
897,839	2,60111
898,013	-43,17966
898,186	-95,20628
898,36	-51,5037
898,534	31,73306
898,707	-43,17966
898,881	29,65224
899,054	58,78326
899,228	-7,80339
899,401	-111,85549
899,574	25,49058
899,748	-53,58473
899,921	-26,53182
900,095	27,57141
900,268	54,62175
900,441	77,50984
900,615	50,46021
900,788	54,62175
900,961	10,92463
901,135	33,81387
901,308	19,24806
901,481	102,47797
901,654	46,29866
901,828	-9,88431
902,001	56,70251
902,174	31,73306
902,347	-105,612
902,52	83,75194
902,693	50,46021
902,866	96,236
903,04	46,29866
903,213	19,24806
903,386	10,92463
903,559	23,40975
903,732	-74,39525
903,905	25,49058
904,078	-14,04616
904,251	-43,17966
904,424	0,52022
904,596	2,60111
904,769	-5,72248
904,942	-22,36991
905,115	37,97549
905,288	-14,04616
905,461	-9,88431
905,634	48,37944
905,806	-51,5037
905,979	-74,39525
906,152	73,34841
906,325	71,26769
906,497	-61,90887
906,67	121,20361
906,843	-26,53182
907,015	-41,09866
907,188	21,32891
907,361	50,46021
907,533	17,16721
907,706	-57,74679
907,878	31,73306
908,051	-11,96523
908,224	35,89468
908,396	-14,04616
908,569	-18,20802
908,741	-41,09866
908,914	71,26769
909,086	85,83263
909,258	73,34841
909,431	-16,12709
909,603	-51,5037
909,776	121,20361
909,948	-5,72248
910,12	58,78326
910,293	40,05629
910,465	100,39732
910,637	-57,74679
910,81	114,96177
910,982	-39,01767
911,154	-20,28897
911,326	-88,96292
911,498	-18,20802
911,671	54,62175
911,843	-18,20802
912,015	33,81387
912,187	-59,82783
912,359	-66,07098
912,531	-41,09866
912,703	46,29866
912,875	-51,5037
913,047	-11,96523
913,219	48,37944
913,391	-26,53182
913,563	83,75194
913,735	42,13708
913,907	129,52598
914,079	133,68714
914,251	-41,09866
914,423	-39,01767
914,595	19,24806
914,767	-99,36855
914,939	139,92884
915,11	15,08635
915,282	-68,15204
915,454	-30,69375
915,626	89,99399
915,797	21,32891
915,969	117,04239
916,141	29,65224
916,313	19,24806
916,484	133,68714
916,656	29,65224
916,828	48,37944
916,999	108,71989
917,171	-80,6385
917,342	-26,53182
917,514	-36,93668
917,685	42,13708
917,857	-55,66576
918,028	-22,36991
918,2	4,682
918,371	92,07467
918,543	52,54098
918,714	-68,15204
918,886	15,08635
919,057	46,29866
919,229	-109,77432
919,4	35,89468
919,571	58,78326
919,743	25,49058
919,914	50,46021
920,085	-36,93668
920,256	10,92463
920,428	69,18696
920,599	-1,56067
920,77	19,24806
920,941	46,29866
921,113	10,92463
921,284	15,08635
921,455	25,49058
921,626	15,08635
921,797	-20,28897
921,968	81,67124
922,139	42,13708
922,31	19,24806
922,481	-24,45086
922,652	46,29866
922,823	21,32891
922,994	-30,69375
923,165	73,34841
923,336	-26,53182
923,507	87,91331
923,678	8,84376
923,849	-18,20802
924,02	-16,12709
924,191	-24,45086
924,362	-107,69316
924,532	-39,01767
924,703	21,32891
924,874	-76,47633
925,045	-18,20802
925,215	6,76288
925,386	40,05629
925,557	-16,12709
925,728	-128,50503
925,898	-78,55741
926,069	-70,2331
926,24	46,29866
926,41	-68,15204
926,581	-3,64157
926,751	25,49058
926,922	-32,77472
927,092	-32,77472
927,263	-61,90887
927,433	112,88115
927,604	-63,98992
927,774	-26,53182
927,945	2,60111
928,115	129,52598
928,286	-41,09866
928,456	89,99399
928,627	79,59054
928,797	56,70251
928,967	75,42912
929,138	-47,34167
929,308	62,94476
929,478	17,16721
929,648	-7,80339
929,819	73,34841
929,989	60,86401
930,159	42,13708
930,329	-88,96292
930,5	-9,88431
930,67	-20,28897
930,84	-51,5037
931,01	-34,8557
931,18	-1,56067
931,35	33,81387
931,52	-74,39525
931,69	21,32891
931,86	37,97549
932,03	-53,58473
932,2	-1,56067
932,37	-172,21166
932,54	87,91331
932,71	-61,90887
932,88	29,65224
933,05	75,42912
933,22	19,24806
933,39	-74,39525
933,56	92,07467
933,73	-24,45086
933,899	-14,04616
934,069	15,08635
934,239	81,67124
934,409	-1,56067
934,578	-34,8557
934,748	27,57141
934,918	8,84376
935,088	29,65224
935,257	-28,61278
935,427	33,81387
935,596	-43,17966
935,766	-1,56067
935,936	25,49058
936,105	-86,88181
936,275	60,86401
936,444	17,16721
936,614	-45,26066
936,783	-1,56067
936,953	-3,64157
937,122	23,40975
937,292	-80,6385
937,461	-24,45086
937,631	-49,42269
937,8	54,62175
937,969	21,32891
938,139	6,76288
938,308	35,89468
938,477	65,0255
938,647	-11,96523
938,816	-107,69316
938,985	-70,2331
939,155	35,89468
939,324	-41,09866
939,493	-24,45086
939,662	27,57141
939,831	42,13708
940,001	89,99399
940,17	-47,34167
940,339	-30,69375
940,508	-68,15204
940,677	98,31666
940,846	-41,09866
941,015	-18,20802
941,184	48,37944
941,353	-61,90887
941,522	-45,26066
941,691	131,60656
941,86	-78,55741
942,029	-28,61278
942,198	67,10623
942,367	-74,39525
942,536	-32,77472
942,705	-41,09866
942,873	62,94476
943,042	-30,69375
943,211	-59,82783
943,38	35,89468
943,549	-30,69375
943,717	46,29866
943,886	-39,01767
944,055	-16,12709
944,224	27,57141
944,392	73,34841
944,561	-74,39525
944,73	-47,34167
944,898	52,54098
945,067	15,08635
945,235	0,52022
945,404	27,57141
945,572	85,83263
945,741	-30,69375
945,91	-11,96523
946,078	-18,20802
946,247	-1,56067
946,415	2,60111
946,583	-9,88431
946,752	83,75194
946,92	37,97549
947,089	37,97549
947,257	-63,98992
947,425	0,52022
947,594	-14,04616
947,762	75,42912
947,93	4,682
948,099	23,40975
948,267	60,86401
948,435	-30,69375
948,603	-43,17966
948,772	13,00549
948,94	0,52022
949,108	-30,69375
949,276	6,76288
949,444	0,52022
949,612	37,97549
949,78	56,70251
949,948	23,40975
950,116	-3,64157
950,285	19,24806
950,453	21,32891
950,621	-36,93668
950,789	-57,74679
950,957	-49,42269
951,124	-59,82783
951,292	21,32891
951,46	-16,12709
951,628	48,37944
951,796	15,08635
951,964	-57,74679
952,132	-53,58473
952,3	44,21787
952,467	13,00549
952,635	17,16721
952,803	-26,53182
952,971	-24,45086
953,138	85,83263
953,306	-95,20628
953,474	27,57141
953,641	-61,90887
953,809	-105,612
953,977	-9,88431
954,144	25,49058
954,312	-22,36991
954,48	75,42912
954,647	6,76288
954,815	92,07467
954,982	73,34841
955,15	19,24806
955,317	-55,66576
955,485	-32,77472
955,652	52,54098
955,82	75,42912
955,987	-26,53182
956,154	-51,5037
956,322	-1,56067
956,489	6,76288
956,656	-51,5037
956,824	-99,36855
956,991	-41,09866
957,158	-107,69316
957,326	13,00549
957,493	87,91331
957,66	40,05629
957,827	6,76288
957,994	60,86401
958,162	-111,85549
958,329	79,59054
958,496	0,52022
958,663	-70,2331
958,83	15,08635
958,997	-74,39525
959,164	13,00549
959,331	52,54098
959,498	-116,01784
959,665	-20,28897
959,832	31,73306
959,999	-3,64157
960,166	127,4454
960,333	27,57141
960,5	46,29866
960,667	46,29866
960,834	-3,64157
961,001	-43,17966
961,168	-59,82783
961,334	37,97549
961,501	83,75194
961,668	-28,61278
961,835	-24,45086
962,002	-41,09866
962,168	-99,36855
962,335	-113,93666
962,502	25,49058
962,668	-55,66576
962,835	10,92463
963,002	56,70251
963,168	44,21787
963,335	19,24806
963,502	123,28421
963,668	6,76288
963,835	62,94476
964,001	15,08635
964,168	2,60111
964,334	-3,64157
964,501	-20,28897
964,667	58,78326
964,834	-107,69316
965	-47,34167
965,166	13,00549
965,333	17,16721
965,499	-34,8557
965,665	77,50984
965,832	6,76288
965,998	-16,12709
966,164	2,60111
966,331	25,49058
966,497	60,86401
966,663	-20,28897
966,829	19,24806
966,996	69,18696
967,162	-63,98992
967,328	-59,82783
967,494	-20,28897
967,66	35,89468
967,826	98,31666
967,992	-63,98992
968,158	-24,45086
968,324	-57,74679
968,491	89,99399
968,657	-11,96523
968,823	40,05629
968,988	-14,04616
969,154	40,05629
969,32	4,682
969,486	-78,55741
969,652	4,682
969,818	135,76771
969,984	-45,26066
970,15	-74,39525
970,316	-86,88181
970,481	-24,45086
970,647	2,60111
970,813	37,97549
970,979	31,73306
971,144	37,97549
971,31	19,24806
971,476	-63,98992
971,642	29,65224
971,807	67,10623
971,973	-86,88181
972,138	6,76288
972,304	-59,82783
972,47	-128,50503
972,635	-9,88431
972,801	25,49058
972,966	-66,07098
973,132	79,59054
973,297	17,16721
973,463	13,00549
973,628	10,92463
973,794	65,0255
973,959	-36,93668
974,125	-51,5037
974,29	-57,74679
974,455	-5,72248
974,621	-70,2331
974,786	146,1705
974,951	-36,93668
975,117	-18,20802
975,282	-39,01767
975,447	-57,74679
975,612	46,29866
975,778	-57,74679
975,943	-53,58473
976,108	135,76771
976,273	-5,72248
976,438	46,29866
976,603	6,76288
976,768	-49,42269
976,934	-5,72248
977,099	-26,53182
977,264	96,236
977,429	46,29866
977,594	-55,66576
977,759	15,08635
977,924	-53,58473
978,089	-28,61278
978,254	50,46021
978,418	48,37944
978,583	-111,85549
978,748	58,78326
978,913	-70,2331
979,078	-34,8557
979,243	-49,42269
979,408	100,39732
979,572	-18,20802
979,737	37,97549
979,902	-116,01784
980,067	44,21787
980,231	-43,17966
980,396	0,52022
980,561	-61,90887
980,725	-39,01767
980,89	-1,56067
981,055	-61,90887
981,219	-68,15204
981,384	58,78326
981,548	44,21787
981,713	54,62175
981,877	46,29866
982,042	-16,12709
982,206	77,50984
982,371	-72,31417
982,535	75,42912
982,7	333,40008
982,864	-5,72248
983,029	23,40975
983,193	27,57141
983,357	6,76288
983,522	77,50984
983,686	48,37944
983,85	0,52022
984,015	10,92463
984,179	71,26769
984,343	-18,20802
984,507	-36,93668
984,672	69,18696
984,836	15,08635
985	-36,93668
985,164	-28,61278
985,328	83,75194
985,492	-68,15204
985,656	92,07467
985,821	21,32891
985,985	-61,90887
986,149	44,21787
986,313	33,81387
986,477	-39,01767
986,641	29,65224
986,805	67,10623
986,969	-68,15204
987,133	31,73306
987,296	-126,42381
987,46	-36,93668
987,624	2,60111
987,788	-16,12709
987,952	13,00549
988,116	-11,96523
988,28	137,84828
988,443	85,83263
988,607	35,89468
988,771	-45,26066
988,935	62,94476
989,098	0,52022
989,262	6,76288
989,426	-9,88431
989,589	0,52022
989,753	-49,42269
989,917	65,0255
990,08	21,32891
990,244	13,00549
990,407	10,92463
990,571	31,73306
990,734	-16,12709
990,898	29,65224
991,061	-74,39525
991,225	-68,15204
991,388	-78,55741
991,552	69,18696
991,715	-36,93668
991,878	-51,5037
992,042	29,65224
992,205	46,29866
992,369	-130,58624
992,532	-28,61278
992,695	-66,07098
992,858	83,75194
993,022	17,16721
993,185	60,86401
993,348	-28,61278
993,511	-39,01767
993,675	-43,17966
993,838	81,67124
994,001	-18,20802
994,164	58,78326
994,327	40,05629
994,49	4,682
994,653	-20,28897
994,816	-45,26066
994,979	110,80052
995,142	-99,36855
995,305	8,84376
995,468	-57,74679
995,631	21,32891
995,794	-5,72248
995,957	-9,88431
996,12	-14,04616
996,283	114,96177
996,446	125,3648
996,609	23,40975
996,772	8,84376
996,934	-43,17966
997,097	-66,07098
997,26	-43,17966
997,423	-16,12709
997,585	-126,42381
997,748	29,65224
997,911	-30,69375
998,074	158,65368
998,236	-26,53182
998,399	17,16721
998,561	-111,85549
998,724	73,34841
998,887	-26,53182
999,049	0,52022
999,212	31,73306
999,374	-7,80339
999,537	-53,58473
999,699	-53,58473
999,862	31,73306
1000,024	-78,55741
1000,187	15,08635
1000,349	-20,28897
1000,512	21,32891
1000,674	-11,96523
1000,836	-28,61278
1000,999	-20,28897
1001,161	21,32891
1001,323	-66,07098
1001,486	-41,09866
1001,648	-78,55741
1001,81	-57,74679
1001,972	-32,77472
1002,134	-43,17966
1002,297	94,15534
1002,459	54,62175
1002,621	114,96177
1002,783	2,60111
1002,945	-61,90887
1003,107	-26,53182
1003,269	92,07467
1003,432	121,20361
1003,594	-88,96292
1003,756	-16,12709
1003,918	8,84376
1004,08	-22,36991
1004,242	67,10623
1004,404	52,54098
1004,565	-5,72248
1004,727	52,54098
1004,889	-18,20802
1005,051	-134,74869
1005,213	2,60111
1005,375	-5,72248
1005,537	2,60111
1005,698	17,16721
1005,86	125,3648
1006,022	56,70251
1006,184	-22,36991
1006,345	44,21787
1006,507	-80,6385
1006,669	-55,66576
1006,831	-66,07098
1006,992	2,60111
1007,154	-1,56067
1007,315	-55,66576
1007,477	56,70251
1007,639	52,54098
1007,8	-55,66576
1007,962	-32,77472
1008,123	-14,04616
1008,285	25,49058
1008,446	-9,88431
1008,608	-51,5037
1008,769	52,54098
1008,931	-26,53182
1009,092	-26,53182
1009,253	58,78326
1009,415	92,07467
1009,576	-84,8007
1009,737	-7,80339
1009,899	58,78326
1010,06	6,76288
1010,221	-63,98992
1010,382	-7,80339
1010,544	44,21787
1010,705	40,05629
1010,866	83,75194
1011,027	-59,82783
1011,188	-34,8557
1011,35	-63,98992
1011,511	-20,28897
1011,672	-14,04616
1011,833	0,52022
1011,994	121,20361
1012,155	-34,8557
1012,316	-124,34261
1012,477	52,54098
1012,638	-47,34167
1012,799	75,42912
1012,96	-86,88181
1013,121	-55,66576
1013,282	-14,04616
1013,443	160,7342
1013,604	44,21787
1013,765	-7,80339
1013,925	69,18696
1014,086	81,67124
1014,247	-51,5037
1014,408	69,18696
1014,569	-26,53182
1014,729	-55,66576
1014,89	-66,07098
1015,051	8,84376
1015,211	-59,82783
1015,372	83,75194
1015,533	27,57141
1015,693	-59,82783
1015,854	-47,34167
1016,015	71,26769
1016,175	81,67124
1016,336	2,60111
1016,496	21,32891
1016,657	60,86401
1016,817	8,84376
1016,978	62,94476
1017,138	19,24806
1017,299	58,78326
1017,459	-88,96292
1017,62	15,08635
1017,78	37,97549
1017,94	-47,34167
1018,101	-30,69375
1018,261	-51,5037
1018,421	-16,12709
1018,582	13,00549
1018,742	-26,53182
1018,902	-80,6385
1019,062	-57,74679
1019,223	-97,28742
1019,383	-41,09866
1019,543	4,682
1019,703	44,21787
1019,863	-55,66576
1020,023	-88,96292
1020,184	-9,88431
1020,344	0,52022
1020,504	-30,69375
1020,664	2,60111
1020,824	-113,93666
1020,984	-61,90887
1021,144	15,08635
1021,304	-93,12516
1021,464	-47,34167
1021,624	-51,5037
1021,784	0,52022
1021,943	-57,74679
1022,103	21,32891
1022,263	-30,69375
1022,423	-57,74679
1022,583	-18,20802
1022,743	-51,5037
1022,902	67,10623
1023,062	-18,20802
1023,222	-39,01767
1023,382	-32,77472
1023,541	54,62175
1023,701	23,40975
1023,861	-91,04404
1024,02	-14,04616
1024,18	-34,8557
1024,34	-41,09866
1024,499	4,682
1024,659	15,08635
1024,818	-76,47633
1024,978	-53,58473
1025,137	110,80052
1025,297	46,29866
1025,456	25,49058
1025,616	100,39732
1025,775	50,46021
1025,935	210,66506
1026,094	83,75194
1026,254	-109,77432
1026,413	19,24806
1026,572	10,92463
1026,732	-93,12516
1026,891	-55,66576
1027,05	-32,77472
1027,21	65,0255
1027,369	-39,01767
1027,528	-28,61278
1027,687	-22,36991
1027,846	19,24806
1028,006	-45,26066
1028,165	-22,36991
1028,324	-3,64157
1028,483	-172,21166
1028,642	-59,82783
1028,801	25,49058
1028,96	23,40975
1029,119	-41,09866
1029,278	-1,56067
1029,437	-91,04404
1029,596	-113,93666
1029,755	-95,20628
1029,914	44,21787
1030,073	-82,7196
1030,232	60,86401
1030,391	2,60111
1030,55	-24,45086
1030,709	60,86401
1030,868	-122,26141
1031,026	15,08635
1031,185	-59,82783
1031,344	77,50984
1031,503	52,54098
1031,662	-22,36991
1031,82	21,32891
1031,979	-70,2331
1032,138	123,28421
1032,296	-51,5037
1032,455	-1,56067
1032,614	-3,64157
1032,772	37,97549
1032,931	-78,55741
1033,089	-49,42269
1033,248	67,10623
1033,407	-32,77472
1033,565	-74,39525
1033,724	-36,93668
1033,882	44,21787
1034,04	69,18696
1034,199	60,86401
1034,357	-105,612
1034,516	29,65224
1034,674	-68,15204
1034,832	60,86401
1034,991	-43,17966
1035,149	-1,56067
1035,307	-36,93668
1035,466	13,00549
1035,624	-18,20802
1035,782	17,16721
1035,941	50,46021
1036,099	-66,07098
1036,257	25,49058
1036,415	83,75194
1036,573	-59,82783
1036,731	-34,8557
1036,889	48,37944
1037,048	-22,36991
1037,206	89,99399
1037,364	-24,45086
1037,522	-24,45086
1037,68	-70,2331
1037,838	-14,04616
1037,996	-14,04616
1038,154	-14,04616
