Data from 17-06-meltmethod-300mgPTP-0.3PC-gluedtolam_FLMT001621__0__16-04-53-753.txt Node

Date: Thu Jun 18 16:04:53 EDT 2026
User: lucas
Spectrometer: FLMT00162
Trigger mode: 0
Integration Time (sec): 5,000000E-3
Scans to average: 1
Electric dark correction enabled: true
Nonlinearity correction enabled: true
Boxcar width: 0
XAxis mode: Wavelengths
Number of Pixels in Spectrum: 3648
>>>>>Begin Spectral Data<<<<<
345,274	-34,16204
345,493	-34,16204
345,712	-34,16204
345,932	28,26502
346,151	-25,83817
346,37	22,02252
346,59	19,94168
346,809	15,77997
347,028	-7,10975
347,247	-17,51438
347,467	22,02252
347,686	-2,94794
347,905	-25,83817
348,124	44,91147
348,343	-54,97208
348,563	9,53738
348,782	9,53738
349,001	-30,00009
349,22	22,02252
349,439	13,69911
349,658	7,45651
349,877	-42,486
350,096	-156,94876
350,315	-52,89105
350,534	46,99225
350,753	19,94168
350,972	19,94168
351,191	49,07303
351,41	-27,91913
351,629	-36,24302
351,848	67,79981
352,067	-65,37729
352,286	-34,16204
352,505	-15,43344
352,724	-11,27159
352,943	53,23457
353,162	-13,35251
353,381	-54,97208
353,599	15,77997
353,818	-11,27159
354,037	17,86083
354,256	-90,35033
354,475	-123,64888
354,693	49,07303
354,912	26,18419
355,131	57,39609
355,35	15,77997
355,568	99,01022
355,787	-30,00009
356,006	65,71908
356,224	61,5576
356,443	-46,648
356,661	-5,02884
356,88	84,4455
357,099	-50,81003
357,317	46,99225
357,536	-15,43344
357,754	-15,43344
357,973	-17,51438
358,191	3,29474
358,41	76,1227
358,628	19,94168
358,847	-109,0806
359,065	3,29474
359,284	76,1227
359,502	-13,35251
359,721	-119,48648
359,939	-21,67626
360,157	-27,91913
360,376	11,61825
360,594	-15,43344
360,813	63,63834
361,031	-32,08106
361,249	13,69911
361,467	-15,43344
361,686	-50,81003
361,904	59,47685
362,122	3,29474
362,341	-52,89105
362,559	-54,97208
362,777	-17,51438
362,995	7,45651
363,213	-44,567
363,431	9,53738
363,65	-40,405
363,868	7,45651
364,086	7,45651
364,304	42,83068
364,522	-88,26921
364,74	-34,16204
364,958	3,29474
365,176	-21,67626
365,394	-42,486
365,612	-19,59532
365,83	32,42666
366,048	34,50748
366,266	1,21385
366,484	-5,02884
366,702	51,1538
366,92	-50,81003
367,138	32,42666
367,356	7,45651
367,574	42,83068
367,792	-50,81003
368,01	-21,67626
368,227	-38,32401
368,445	-54,97208
368,663	-34,16204
368,881	53,23457
369,099	38,66909
369,316	1,21385
369,534	-11,27159
369,752	90,68755
369,97	-11,27159
370,187	-94,51258
370,405	53,23457
370,623	42,83068
370,84	-71,62048
371,058	1,21385
371,276	-65,37729
371,493	22,02252
371,711	28,26502
371,928	9,53738
372,146	-79,94481
372,364	44,91147
372,581	55,31534
372,799	9,53738
373,016	-100,75598
373,234	-32,08106
373,451	84,4455
373,669	-52,89105
373,886	28,26502
374,103	61,5576
374,321	11,61825
374,538	7,45651
374,756	-15,43344
374,973	5,37563
375,19	-23,75721
375,408	26,18419
375,625	-30,00009
375,842	-9,19067
376,06	5,37563
376,277	36,58828
376,494	-9,19067
376,712	13,69911
376,929	19,94168
377,146	96,92956
377,363	9,53738
377,581	-59,13415
377,798	42,83068
378,015	34,50748
378,232	-2,94794
378,449	82,36481
378,666	-34,16204
378,883	-17,51438
379,101	69,88054
379,318	17,86083
379,535	82,36481
379,752	3,29474
379,969	-46,648
380,186	-27,91913
380,403	-30,00009
380,62	-5,02884
380,837	34,50748
381,054	-11,27159
381,271	5,37563
381,488	-27,91913
381,705	13,69911
381,921	-92,43145
382,138	26,18419
382,355	1,21385
382,572	-73,70156
382,789	-2,94794
383,006	-25,83817
383,223	36,58828
383,439	53,23457
383,656	-42,486
383,873	17,86083
384,09	-54,97208
384,306	-52,89105
384,523	-27,91913
384,74	-0,86704
384,957	-0,86704
385,173	30,34584
385,39	-2,94794
385,607	34,50748
385,823	11,61825
386,04	11,61825
386,256	26,18419
386,473	63,63834
386,69	65,71908
386,906	-15,43344
387,123	84,4455
387,339	-38,32401
387,556	-40,405
387,772	19,94168
387,989	-9,19067
388,205	-5,02884
388,422	38,66909
388,638	32,42666
388,855	-52,89105
389,071	15,77997
389,287	-40,405
389,504	92,76823
389,72	40,74989
389,937	-2,94794
390,153	15,77997
390,369	-30,00009
390,585	-13,35251
390,802	3,29474
391,018	-11,27159
391,234	61,5576
391,451	-15,43344
391,667	5,37563
391,883	-65,37729
392,099	51,1538
392,315	5,37563
392,532	-17,51438
392,748	-48,72901
392,964	24,10336
393,18	19,94168
393,396	38,66909
393,612	-38,32401
393,828	49,07303
394,044	-38,32401
394,26	34,50748
394,477	55,31534
394,693	-82,0259
394,909	28,26502
395,125	-15,43344
395,341	-46,648
395,557	-15,43344
395,772	-54,97208
395,988	46,99225
396,204	-25,83817
396,42	38,66909
396,636	40,74989
396,852	88,60687
397,068	-2,94794
397,284	94,84889
397,5	-69,53941
397,715	24,10336
397,931	-48,72901
398,147	26,18419
398,363	67,79981
398,578	-73,70156
398,794	-46,648
399,01	32,42666
399,226	90,68755
399,441	40,74989
399,657	-9,19067
399,873	9,53738
400,088	40,74989
400,304	-67,45835
400,52	-67,45835
400,735	36,58828
400,951	36,58828
401,166	-46,648
401,382	-17,51438
401,597	49,07303
401,813	63,63834
402,029	-57,05311
402,244	5,37563
402,46	32,42666
402,675	-34,16204
402,89	17,86083
403,106	3,29474
403,321	-11,27159
403,537	57,39609
403,752	19,94168
403,968	-13,35251
404,183	17,86083
404,398	71,96126
404,614	-21,67626
404,829	5,37563
405,044	63,63834
405,26	-79,94481
405,475	51,1538
405,69	-7,10975
405,905	-23,75721
406,121	-98,67484
406,336	84,4455
406,551	-30,00009
406,766	36,58828
406,981	-17,51438
407,196	7,45651
407,412	19,94168
407,627	76,1227
407,842	9,53738
408,057	24,10336
408,272	36,58828
408,487	30,34584
408,702	28,26502
408,917	-38,32401
409,132	69,88054
409,347	-52,89105
409,562	101,09087
409,777	-27,91913
409,992	22,02252
410,207	9,53738
410,422	26,18419
410,637	24,10336
410,852	38,66909
411,067	-61,21519
411,282	-9,19067
411,496	49,07303
411,711	-13,35251
411,926	84,4455
412,141	46,99225
412,356	119,81654
412,571	-46,648
412,785	67,79981
413	7,45651
413,215	-15,43344
413,429	-15,43344
413,644	-27,91913
413,859	11,61825
414,074	-5,02884
414,288	-25,83817
414,503	19,94168
414,718	55,31534
414,932	38,66909
415,147	42,83068
415,361	7,45651
415,576	-23,75721
415,79	67,79981
416,005	55,31534
416,22	24,10336
416,434	-54,97208
416,649	-54,97208
416,863	24,10336
417,077	-11,27159
417,292	-42,486
417,506	9,53738
417,721	1,21385
417,935	15,77997
418,15	-111,16176
418,364	-34,16204
418,578	15,77997
418,793	-25,83817
419,007	-0,86704
419,221	5,37563
419,436	3,29474
419,65	7,45651
419,864	-0,86704
420,078	49,07303
420,293	9,53738
420,507	30,34584
420,721	-0,86704
420,935	111,49407
421,149	-25,83817
421,364	44,91147
421,578	71,96126
421,792	69,88054
422,006	34,50748
422,22	19,94168
422,434	51,1538
422,648	-2,94794
422,862	-15,43344
423,076	61,5576
423,29	-19,59532
423,504	-9,19067
423,718	30,34584
423,932	-50,81003
424,146	26,18419
424,36	71,96126
424,574	15,77997
424,788	26,18419
425,002	28,26502
425,216	-34,16204
425,43	5,37563
425,644	7,45651
425,858	-0,86704
426,071	-23,75721
426,285	-79,94481
426,499	-15,43344
426,713	-25,83817
426,927	3,29474
427,14	-9,19067
427,354	-15,43344
427,568	-9,19067
427,782	7,45651
427,995	-11,27159
428,209	3,29474
428,423	61,5576
428,636	40,74989
428,85	94,84889
429,063	71,96126
429,277	-11,27159
429,491	-19,59532
429,704	19,94168
429,918	5,37563
430,131	17,86083
430,345	34,50748
430,558	-2,94794
430,772	-7,10975
430,985	-40,405
431,199	28,26502
431,412	-38,32401
431,626	13,69911
431,839	3,29474
432,053	-21,67626
432,266	-57,05311
432,479	22,02252
432,693	-15,43344
432,906	109,41344
433,119	17,86083
433,333	24,10336
433,546	-2,94794
433,759	-5,02884
433,973	-0,86704
434,186	11,61825
434,399	-13,35251
434,612	46,99225
434,825	-23,75721
435,039	115,65531
435,252	5,37563
435,465	38,66909
435,678	-19,59532
435,891	11,61825
436,104	-34,16204
436,318	-15,43344
436,531	-69,53941
436,744	96,92956
436,957	109,41344
437,17	36,58828
437,383	-34,16204
437,596	46,99225
437,809	-40,405
438,022	-38,32401
438,235	-23,75721
438,448	-50,81003
438,661	-27,91913
438,874	-21,67626
439,086	-36,24302
439,299	74,04198
439,512	-9,19067
439,725	-40,405
439,938	-86,18811
440,151	-7,10975
440,364	-50,81003
440,576	28,26502
440,789	57,39609
441,002	-40,405
441,215	53,23457
441,427	24,10336
441,64	22,02252
441,853	69,88054
442,066	15,77997
442,278	26,18419
442,491	-0,86704
442,704	42,83068
442,916	-15,43344
443,129	19,94168
443,341	-13,35251
443,554	32,42666
443,767	32,42666
443,979	-25,83817
444,192	34,50748
444,404	-48,72901
444,617	-25,83817
444,829	28,26502
445,042	69,88054
445,254	53,23457
445,467	28,26502
445,679	-13,35251
445,892	13,69911
446,104	13,69911
446,316	-57,05311
446,529	80,28411
446,741	13,69911
446,953	92,76823
447,166	51,1538
447,378	36,58828
447,59	-27,91913
447,803	51,1538
448,015	-9,19067
448,227	69,88054
448,439	9,53738
448,652	-15,43344
448,864	-13,35251
449,076	-13,35251
449,288	63,63834
449,5	-17,51438
449,712	32,42666
449,925	67,79981
450,137	13,69911
450,349	-2,94794
450,561	61,5576
450,773	-5,02884
450,985	7,45651
451,197	30,34584
451,409	-2,94794
451,621	-36,24302
451,833	1,21385
452,045	-30,00009
452,257	9,53738
452,469	105,25216
452,681	-7,10975
452,893	3,29474
453,105	30,34584
453,317	53,23457
453,529	63,63834
453,74	-34,16204
453,952	17,86083
454,164	-7,10975
454,376	-40,405
454,588	76,1227
454,799	-34,16204
455,011	-17,51438
455,223	-0,86704
455,435	3,29474
455,646	49,07303
455,858	-13,35251
456,07	19,94168
456,281	-25,83817
456,493	26,18419
456,705	-38,32401
456,916	17,86083
457,128	109,41344
457,34	74,04198
457,551	57,39609
457,763	-36,24302
457,974	-0,86704
458,186	3,29474
458,397	49,07303
458,609	24,10336
458,82	67,79981
459,032	3,29474
459,243	71,96126
459,455	19,94168
459,666	128,13893
459,878	-71,62048
460,089	-57,05311
460,3	-11,27159
460,512	-23,75721
460,723	-77,86372
460,934	-86,18811
461,146	99,01022
461,357	46,99225
461,568	3,29474
461,78	88,60687
461,991	51,1538
462,202	44,91147
462,413	-23,75721
462,625	88,60687
462,836	42,83068
463,047	49,07303
463,258	-36,24302
463,469	-0,86704
463,68	34,50748
463,891	7,45651
464,103	24,10336
464,314	13,69911
464,525	-54,97208
464,736	-0,86704
464,947	11,61825
465,158	32,42666
465,369	-32,08106
465,58	13,69911
465,791	-13,35251
466,002	63,63834
466,213	103,17152
466,424	40,74989
466,635	-40,405
466,846	80,28411
467,056	-15,43344
467,267	42,83068
467,478	24,10336
467,689	-46,648
467,9	-11,27159
468,111	44,91147
468,322	-46,648
468,532	7,45651
468,743	71,96126
468,954	92,76823
469,165	67,79981
469,375	38,66909
469,586	-54,97208
469,797	9,53738
470,007	3,29474
470,218	-5,02884
470,429	51,1538
470,639	-23,75721
470,85	-13,35251
471,061	26,18419
471,271	-32,08106
471,482	11,61825
471,692	28,26502
471,903	-27,91913
472,113	7,45651
472,324	49,07303
472,534	-98,67484
472,745	-23,75721
472,955	-27,91913
473,166	49,07303
473,376	-54,97208
473,587	-25,83817
473,797	-79,94481
474,007	22,02252
474,218	-9,19067
474,428	30,34584
474,638	3,29474
474,849	22,02252
475,059	-2,94794
475,269	24,10336
475,48	22,02252
475,69	22,02252
475,9	46,99225
476,11	13,69911
476,321	-50,81003
476,531	67,79981
476,741	-15,43344
476,951	1,21385
477,161	-7,10975
477,371	-38,32401
477,581	-42,486
477,792	36,58828
478,002	-25,83817
478,212	-9,19067
478,422	-65,37729
478,632	53,23457
478,842	30,34584
479,052	61,5576
479,262	-5,02884
479,472	99,01022
479,682	5,37563
479,892	9,53738
480,102	-11,27159
480,312	-44,567
480,522	-25,83817
480,731	38,66909
480,941	65,71908
481,151	-15,43344
481,361	-48,72901
481,571	3,29474
481,781	22,02252
481,991	-50,81003
482,2	-5,02884
482,41	49,07303
482,62	126,05834
482,83	30,34584
483,039	-100,75598
483,249	17,86083
483,459	-50,81003
483,668	24,10336
483,878	-27,91913
484,088	-0,86704
484,297	69,88054
484,507	40,74989
484,716	90,68755
484,926	46,99225
485,136	61,5576
485,345	71,96126
485,555	24,10336
485,764	44,91147
485,974	-7,10975
486,183	26,18419
486,393	59,47685
486,602	19,94168
486,812	22,02252
487,021	7,45651
487,23	-13,35251
487,44	11,61825
487,649	5,37563
487,859	-36,24302
488,068	32,42666
488,277	-2,94794
488,487	26,18419
488,696	-11,27159
488,905	-7,10975
489,115	-34,16204
489,324	-2,94794
489,533	28,26502
489,742	51,1538
489,951	24,10336
490,161	-25,83817
490,37	-77,86372
490,579	9,53738
490,788	111,49407
490,997	24,10336
491,206	-0,86704
491,415	26,18419
491,625	28,26502
491,834	46,99225
492,043	61,5576
492,252	7,45651
492,461	103,17152
492,67	-23,75721
492,879	22,02252
493,088	-48,72901
493,297	65,71908
493,506	34,50748
493,715	69,88054
493,924	-61,21519
494,132	-75,78263
494,341	69,88054
494,55	65,71908
494,759	-82,0259
494,968	42,83068
495,177	19,94168
495,386	34,50748
495,594	32,42666
495,803	69,88054
496,012	107,3328
496,221	17,86083
496,429	7,45651
496,638	15,77997
496,847	51,1538
497,055	-38,32401
497,264	65,71908
497,473	49,07303
497,681	-25,83817
497,89	44,91147
498,099	26,18419
498,307	49,07303
498,516	99,01022
498,724	19,94168
498,933	55,31534
499,141	57,39609
499,35	-21,67626
499,558	7,45651
499,767	17,86083
499,975	-2,94794
500,184	-5,02884
500,392	-44,567
500,601	53,23457
500,809	36,58828
501,018	109,41344
501,226	88,60687
501,434	-27,91913
501,643	34,50748
501,851	22,02252
502,059	-21,67626
502,268	26,18419
502,476	-7,10975
502,684	-13,35251
502,892	5,37563
503,101	26,18419
503,309	-9,19067
503,517	7,45651
503,725	55,31534
503,933	-27,91913
504,141	-17,51438
504,35	-5,02884
504,558	19,94168
504,766	-65,37729
504,974	9,53738
505,182	86,52619
505,39	13,69911
505,598	-15,43344
505,806	61,5576
506,014	78,2034
506,222	13,69911
506,43	30,34584
506,638	69,88054
506,846	55,31534
507,054	51,1538
507,262	71,96126
507,47	17,86083
507,678	-19,59532
507,886	-15,43344
508,094	7,45651
508,301	-32,08106
508,509	-25,83817
508,717	96,92956
508,925	-30,00009
509,133	11,61825
509,34	3,29474
509,548	-25,83817
509,756	113,57469
509,964	-40,405
510,171	-119,48648
510,379	-61,21519
510,587	86,52619
510,794	42,83068
511,002	11,61825
511,21	130,21951
511,417	22,02252
511,625	17,86083
511,832	19,94168
512,04	-48,72901
512,247	17,86083
512,455	76,1227
512,663	-5,02884
512,87	34,50748
513,078	19,94168
513,285	24,10336
513,492	49,07303
513,7	42,83068
513,907	3,29474
514,115	51,1538
514,322	53,23457
514,529	-17,51438
514,737	-50,81003
514,944	13,69911
515,152	-84,107
515,359	17,86083
515,566	69,88054
515,773	53,23457
515,981	1,21385
516,188	40,74989
516,395	-38,32401
516,602	84,4455
516,81	-44,567
517,017	-25,83817
517,224	24,10336
517,431	-2,94794
517,638	-17,51438
517,845	-7,10975
518,053	-13,35251
518,26	24,10336
518,467	-23,75721
518,674	3,29474
518,881	-50,81003
519,088	26,18419
519,295	-63,29624
519,502	11,61825
519,709	38,66909
519,916	94,84889
520,123	69,88054
520,33	-7,10975
520,537	30,34584
520,744	42,83068
520,95	22,02252
521,157	-11,27159
521,364	7,45651
521,571	26,18419
521,778	28,26502
521,985	-2,94794
522,191	88,60687
522,398	61,5576
522,605	78,2034
522,812	46,99225
523,019	22,02252
523,225	13,69911
523,432	38,66909
523,639	-2,94794
523,845	30,34584
524,052	-40,405
524,259	92,76823
524,465	5,37563
524,672	88,60687
524,878	-15,43344
525,085	128,13893
525,292	65,71908
525,498	-32,08106
525,705	30,34584
525,911	-30,00009
526,118	59,47685
526,324	-5,02884
526,531	74,04198
526,737	84,4455
526,944	22,02252
527,15	3,29474
527,356	30,34584
527,563	69,88054
527,769	-5,02884
527,975	63,63834
528,182	-2,94794
528,388	-36,24302
528,594	42,83068
528,801	1,21385
529,007	71,96126
529,213	34,50748
529,42	46,99225
529,626	11,61825
529,832	7,45651
530,038	13,69911
530,244	94,84889
530,451	26,18419
530,657	-44,567
530,863	69,88054
531,069	-7,10975
531,275	-2,94794
531,481	69,88054
531,687	142,70292
531,893	-15,43344
532,099	-21,67626
532,305	-19,59532
532,511	-2,94794
532,717	86,52619
532,923	53,23457
533,129	42,83068
533,335	1,21385
533,541	30,34584
533,747	-119,48648
533,953	92,76823
534,159	44,91147
534,365	36,58828
534,571	55,31534
534,777	46,99225
534,982	36,58828
535,188	-2,94794
535,394	55,31534
535,6	46,99225
535,806	130,21951
536,011	96,92956
536,217	30,34584
536,423	101,09087
536,628	-11,27159
536,834	34,50748
537,04	59,47685
537,245	96,92956
537,451	119,81654
537,657	42,83068
537,862	57,39609
538,068	19,94168
538,273	-48,72901
538,479	105,25216
538,685	78,2034
538,89	86,52619
539,096	-15,43344
539,301	61,5576
539,507	-2,94794
539,712	-2,94794
539,917	-52,89105
540,123	36,58828
540,328	30,34584
540,534	30,34584
540,739	30,34584
540,944	67,79981
541,15	80,28411
541,355	67,79981
541,56	-36,24302
541,766	13,69911
541,971	65,71908
542,176	13,69911
542,382	40,74989
542,587	-19,59532
542,792	22,02252
542,997	49,07303
543,202	46,99225
543,408	-50,81003
543,613	17,86083
543,818	46,99225
544,023	44,91147
544,228	17,86083
544,433	11,61825
544,638	61,5576
544,843	-27,91913
545,049	46,99225
545,254	103,17152
545,459	59,47685
545,664	-19,59532
545,869	-115,32411
546,074	92,76823
546,279	38,66909
546,483	-13,35251
546,688	113,57469
546,893	32,42666
547,098	132,30009
547,303	13,69911
547,508	121,89714
547,713	71,96126
547,918	49,07303
548,122	3,29474
548,327	71,96126
548,532	101,09087
548,737	38,66909
548,942	-21,67626
549,146	63,63834
549,351	9,53738
549,556	-13,35251
549,76	38,66909
549,965	84,4455
550,17	71,96126
550,374	90,68755
550,579	80,28411
550,784	46,99225
550,988	15,77997
551,193	42,83068
551,397	90,68755
551,602	9,53738
551,806	80,28411
552,011	82,36481
552,215	107,3328
552,42	32,42666
552,624	28,26502
552,829	88,60687
553,033	103,17152
553,238	61,5576
553,442	11,61825
553,646	26,18419
553,851	76,1227
554,055	-11,27159
554,26	63,63834
554,464	-94,51258
554,668	28,26502
554,872	157,26667
555,077	109,41344
555,281	113,57469
555,485	121,89714
555,69	101,09087
555,894	82,36481
556,098	78,2034
556,302	117,73593
556,506	171,83019
556,71	219,68006
556,915	157,26667
557,119	184,31301
557,323	315,37224
557,527	217,59969
557,731	196,79566
557,935	294,57044
558,139	240,48357
558,343	298,73084
558,547	302,89122
558,751	384,01485
558,955	325,77296
559,159	344,49396
559,363	298,73084
559,567	408,97454
559,771	319,53254
559,975	431,85369
560,179	454,73228
560,382	456,81213
560,586	386,09485
560,79	479,69012
560,994	373,61477
561,198	521,28508
561,402	535,84289
561,605	450,57258
561,809	500,48782
562,013	436,01347
562,217	533,76321
562,42	508,80678
562,624	485,92948
562,828	614,86722
563,031	438,09336
563,235	594,07196
563,439	610,7082
563,642	562,87825
563,846	602,39012
564,049	596,15151
564,253	612,78771
564,456	621,10571
564,66	650,21816
564,863	483,8497
565,067	600,31058
565,27	637,7415
565,474	604,46965
565,677	743,78814
565,881	643,97985
566,084	702,20256
566,288	691,80589
566,491	671,01224
566,694	662,69466
566,898	662,69466
567,101	754,18427
567,304	768,73867
567,508	758,34269
567,711	695,96457
567,914	741,7089
568,118	829,03328
568,321	754,18427
568,524	818,63791
568,727	762,5011
568,93	718,837
569,134	908,0347
569,337	808,24244
569,54	924,66581
569,743	924,66581
569,946	874,77167
570,149	856,06076
570,352	901,79796
570,555	951,69082
570,758	864,37676
570,962	935,06013
571,165	910,1136
571,368	899,71904
571,571	862,29777
571,774	926,74468
571,976	982,87266
572,179	970,40003
572,382	964,16366
572,585	966,24246
572,788	995,34514
572,991	1080,56987
573,194	1078,4913
573,397	1026,5257
573,6	989,10891
573,802	1057,70536
574,005	980,79389
574,208	1078,4913
574,411	1128,37592
574,613	1026,5257
574,816	1130,4544
575,019	1238,52978
575,222	1244,76458
575,424	1178,25828
575,627	1103,4339
575,83	1234,37323
576,032	1226,06009
576,235	1286,329
576,438	1319,57943
576,64	1278,01624
576,843	1332,04809
577,045	1444,25987
577,248	1302,95434
577,45	1361,1411
577,653	1381,92136
577,855	1541,91678
578,058	1469,19433
578,26	1514,90612
578,463	1573,08215
578,665	1604,2467
578,868	1672,8058
579,07	1539,83906
579,272	1712,27742
579,475	1687,34812
579,677	1749,67039
579,879	1787,06219
580,082	1811,98941
580,284	1841,07052
580,486	1907,53902
580,689	1934,54081
580,891	1832,7617
581,093	1915,84732
581,295	2055,0031
581,498	2158,8405
581,7	2192,06664
581,902	2162,99381
582,104	2221,13879
582,306	2314,58043
582,508	2399,71014
582,71	2507,67132
582,913	2493,13862
583,115	2709,03608
583,317	2657,14097
583,519	2773,38312
583,721	2914,5202
583,923	3036,96489
584,125	3016,21237
584,327	3238,24703
584,529	3304,6425
584,731	3487,21239
584,933	3582,63631
585,135	3779,68485
585,336	3835,68253
585,538	3877,16069
585,74	4155,02892
585,942	4381,01
586,144	4389,30209
586,346	4681,56162
586,547	4619,38474
586,749	4861,856
586,951	4984,10868
587,153	5299,00423
587,355	5373,57176
587,556	5628,30569
587,758	5791,88334
587,96	5885,0491
588,161	6125,17088
588,363	6377,65104
588,565	6605,24132
588,766	6942,38849
588,968	7213,25776
589,17	7481,97793
589,371	7732,01948
589,573	8027,42741
589,774	8330,98735
589,976	8632,36753
590,177	8972,82692
590,379	9055,33946
590,58	9591,44584
590,782	9688,315
590,983	10172,46118
591,185	10680,9631
591,386	10759,16016
591,587	11569,39415
591,789	11727,62147
591,99	12487,3877
592,192	12641,28321
592,393	13447,07935
592,594	13842,42208
592,796	14266,16635
592,997	14660,99611
593,198	15219,07045
593,399	15748,08437
593,601	16197,11106
593,802	17139,12488
594,003	17351,01135
594,204	18138,96291
594,405	18852,96682
594,607	19231,09863
594,808	19997,08922
595,009	20537,23519
595,21	21324,72683
595,411	21756,87225
595,612	22837,88755
595,813	23375,23082
596,014	23855,77123
596,215	24674,94262
596,416	25218,42588
596,617	25780,27124
596,818	26754,26222
597,019	27267,90322
597,22	28125,16877
597,421	28950,66471
597,622	29459,38892
597,823	30090,69623
598,024	30908,2062
598,225	31436,79963
598,426	32203,00298
598,627	33093,17352
598,827	33332,86443
599,028	34017,7586
599,229	35460,55999
599,43	34948,27004
599,63	36460,12739
599,831	36629,3586
600,032	37789,00591
600,233	38060,273
600,433	38802,53983
600,634	38534,91486
600,835	39962,29056
601,035	40124,6844
601,236	40741,58028
601,437	41190,29797
601,637	42053,77935
601,838	41890,54504
602,038	42562,78786
602,239	42847,97947
602,439	43269,89489
602,64	43419,05039
602,841	44418,57623
603,041	44073,1478
603,241	44460,72575
603,442	44741,15462
603,642	44684,20644
603,843	45013,37526
604,043	45376,68714
604,244	45791,19191
604,444	45952,06354
604,644	45983,82422
604,845	46416,09128
605,045	45827,16924
605,245	45691,74638
605,446	45869,50075
605,646	46515,76817
605,846	45799,6568
606,046	46377,92574
606,247	45890,66863
606,447	45683,28437
606,647	45626,17164
606,847	45916,07197
607,047	45311,17658
607,248	45275,25705
607,448	45104,16538
607,648	45224,55387
607,848	44338,50664
608,048	44994,37584
608,248	44041,57121
608,448	44224,75609
608,648	44129,99301
608,848	43801,68396
609,048	43383,33133
609,248	43593,49591
609,448	42430,75384
609,648	42302,95742
609,848	41800,58805
610,048	41781,76264
610,248	40916,82921
610,448	40518,46469
610,648	39983,10642
610,847	40441,34324
611,047	39005,97355
611,247	39153,42526
611,447	38215,66117
611,647	37888,38027
611,846	37437,25112
612,046	37236,67996
612,246	36264,15176
612,446	36445,68397
612,645	35186,8536
612,845	35197,14025
613,045	34169,63478
613,244	33636,23049
613,444	33476,32487
613,644	33166,91227
613,843	31951,57148
614,043	31779,9284
614,243	31567,49092
614,442	30765,42275
614,642	30722,59414
614,841	30202,76259
615,041	29241,61375
615,24	29082,9009
615,44	28515,45335
615,639	28340,61756
615,839	27535,97779
616,038	27211,04701
616,237	27139,98059
616,437	26788,7692
616,636	25812,72876
616,836	26157,62437
617,035	25114,99497
617,234	25236,67878
617,434	24498,52921
617,633	24533,00033
617,832	23784,80582
618,032	24022,03349
618,231	23936,87466
618,43	23251,54457
618,629	22495,17108
618,828	22923,05498
619,028	22324,8134
619,227	22241,6589
619,426	21736,58595
619,625	21779,18696
619,824	21158,33247
620,023	21340,95953
620,222	20760,53674
620,422	20912,76715
620,621	20476,32825
620,82	20372,77979
621,019	20236,73249
621,218	20072,23688
621,417	19741,14332
621,616	19739,11176
621,815	19011,55667
622,014	19554,22401
622,213	19308,33305
622,411	19261,58663
622,61	18775,6952
622,809	18846,86667
623,008	18578,41912
623,207	18584,5211
623,406	18228,50027
623,605	18346,51217
623,803	17984,28458
624,002	18167,45312
624,201	17611,71336
624,4	17674,83889
624,598	17326,56597
624,797	17617,82251
624,996	17139,12488
625,195	17173,76428
625,393	16904,75673
625,592	17255,26239
625,791	16884,37333
625,989	17080,0304
626,188	16698,85793
626,386	16833,41233
626,585	16539,80633
626,784	16815,06548
626,982	16235,87676
627,181	16672,3518
627,379	16123,65426
627,578	16086,92291
627,776	16066,51575
627,975	15744,00094
628,173	15856,28626
628,371	15768,50116
628,57	15496,9067
628,768	15878,74107
628,967	15300,79922
629,165	15353,91745
629,363	15100,54552
629,562	15170,02827
629,76	15400,90306
629,958	15374,34639
630,157	15024,92348
630,355	15024,92348
630,553	15129,15697
630,751	15178,20223
630,95	14720,30172
631,148	14941,11576
631,346	15108,72035
631,544	14613,95671
631,742	14806,18287
631,94	15104,63295
632,139	14663,04122
632,337	15270,15213
632,535	15353,91745
632,733	15180,2457
632,931	15035,14319
633,129	15431,54404
633,327	15223,15713
633,525	15621,48636
633,723	15509,16147
633,921	16091,00427
634,119	15823,62338
634,317	16070,59723
634,515	16203,23211
634,713	16507,17594
634,91	16735,55709
635,108	16676,42973
635,306	16815,06548
635,504	17509,88718
635,702	17782,75139
635,9	17900,82749
636,097	18377,02981
636,295	18515,36285
636,493	18787,89642
636,691	18928,19872
636,888	19621,27496
637,086	20110,82433
637,284	20480,3888
637,482	20807,22247
637,679	21340,95953
637,877	21738,61459
638,075	22073,31354
638,272	22594,54202
638,47	22797,33103
638,667	23896,32292
638,865	23494,86023
639,062	24058,53025
639,26	24766,19353
639,457	25597,70718
639,655	25392,84754
639,852	26238,7861
640,05	26671,04309
640,247	27097,34275
640,445	28005,27061
640,642	27984,95037
640,84	28521,5529
641,037	28975,0759
641,234	29432,92687
641,432	30506,45621
641,629	30223,14031
641,826	30859,24814
642,024	30838,8501
642,221	31651,23076
642,418	31847,35327
642,615	32513,87793
642,813	32407,50544
643,01	33441,48061
643,207	33189,44573
643,404	34580,35903
643,602	33900,80624
643,799	34639,94449
643,996	34662,54791
644,193	35262,98045
644,39	35540,85208
644,587	36123,93007
644,784	36557,11742
644,981	36984,55418
645,178	37054,80325
645,375	37439,31938
645,572	37975,35294
645,769	38628,2518
645,966	38263,32565
646,163	39070,34703
646,36	39288,46515
646,557	39926,90618
646,754	39743,79215
646,951	40235,06839
647,148	40814,59072
647,345	41100,51132
647,542	41240,42086
647,738	41570,5658
647,935	42131,23657
648,132	42875,25236
648,329	42231,74623
648,526	43232,09088
648,722	42881,5464
648,919	44049,99135
649,116	43667,08347
649,312	44416,46889
649,509	44549,2569
649,706	44844,52992
649,902	44696,86075
650,099	45235,11638
650,296	45070,38008
650,492	45404,16326
650,689	45492,94822
650,885	45402,04963
651,082	45581,75768
651,278	45803,88932
651,475	45848,33429
651,671	46138,43889
651,868	45518,31985
652,064	45856,8007
652,261	45825,05281
652,457	45863,15066
652,654	45581,75768
652,85	45355,55326
653,047	45668,47638
653,243	45273,14426
653,439	45211,87931
653,636	45298,49865
653,832	44477,58703
654,028	44490,23354
654,224	43543,04487
654,421	44052,09641
654,617	43374,92737
654,813	43585,0869
655,009	42722,13161
655,206	42443,32642
655,402	42340,66314
655,598	42489,42965
655,794	40921,0028
655,99	41610,28664
656,186	41075,45844
656,383	41102,59913
656,579	39585,71835
656,775	39708,4279
656,971	39373,66829
657,167	39140,9624
657,363	38306,85037
657,559	38402,20686
657,755	37743,46751
657,951	37269,7571
658,147	36641,74405
658,343	36804,85342
658,539	36344,59392
658,735	36540,6069
658,93	35090,17075
659,126	35761,21661
659,322	34882,47626
659,518	34444,77964
659,714	34216,84956
659,91	33740,81275
660,105	33377,94748
660,301	32958,01394
660,497	32223,44971
660,693	32192,77991
660,888	31853,48321
661,084	31471,5116
661,28	30414,72172
661,476	30920,44633
661,671	30221,10251
661,867	29652,7944
662,062	28810,31469
662,258	28918,11762
662,454	28312,15916
662,649	27989,01438
662,845	27651,7575
663,04	27028,3132
663,236	26782,67967
663,431	26342,27314
663,627	25725,50036
663,822	25780,27124
664,018	25088,6308
664,213	24721,58174
664,409	24243,0432
664,604	23719,92313
664,799	23393,47946
664,995	23425,92141
665,19	22596,56996
665,386	22450,55454
665,581	22051,00184
665,776	21754,84363
665,972	21133,98063
666,167	20945,2409
666,362	20340,29225
666,557	20185,96467
666,753	19765,52168
666,948	19544,0644
667,143	19168,08709
667,338	18739,09055
667,533	18206,11683
667,728	18200,01215
667,924	17611,71336
668,119	17465,0794
668,314	17090,21944
668,509	17222,66422
668,704	16299,12138
668,899	16725,36307
669,094	15913,44249
669,289	15856,28626
669,484	15392,73189
669,679	15284,45429
669,874	14894,0969
670,069	15031,05533
670,264	14421,67264
670,459	14286,62988
670,654	14000,08005
670,849	14077,87073
671,043	13676,53138
671,238	13776,89025
671,433	13340,51949
671,628	13106,84401
671,823	12838,21452
672,018	12932,55554
672,212	12444,29021
672,407	12210,2811
672,602	12163,05823
672,797	11974,13165
672,991	11635,15569
673,186	11423,46181
673,381	11409,07233
673,575	11485,12738
673,77	11045,11841
673,965	10993,69619
674,159	10728,29399
674,354	10604,81508
674,548	10652,15135
674,743	10440,14127
674,937	10178,63959
675,132	10401,02535
675,326	9894,37558
675,521	9809,89802
675,715	9725,41034
675,91	9721,28873
676,104	9457,45627
676,299	9434,77864
676,493	9385,29773
676,687	9243,02138
676,882	9009,95869
677,076	8981,07859
677,271	8776,82342
677,465	8818,09153
677,659	8337,18125
677,853	8642,68671
678,048	8297,95237
678,242	8417,69761
678,436	8248,39735
678,63	8112,10526
678,825	8021,23113
679,019	7909,69001
679,213	7948,93768
679,407	7938,60952
679,601	7729,95333
679,795	7738,21793
679,99	7546,04512
680,184	7521,24548
680,378	7362,09756
680,572	7353,82934
680,766	7291,81522
680,96	7397,23662
681,154	7260,80653
681,348	7074,73171
681,542	6781,06943
681,736	7085,07021
681,93	7016,83392
682,124	6998,22313
682,317	6901,02731
682,511	6762,45389
682,705	6750,04332
682,899	6673,50789
683,093	6553,52098
683,287	6661,09615
683,481	6423,17337
683,674	6487,31487
683,868	6464,55547
684,062	6425,24252
684,256	6325,91854
684,449	6505,93579
684,643	6416,96591
684,837	6303,15538
685,03	6299,01657
685,224	6137,58943
685,418	6183,12281
685,611	6058,93604
685,805	6003,04702
685,999	5872,62748
686,192	5916,10249
686,386	6067,21563
686,579	5885,0491
686,773	5909,89189
686,966	5808,44675
687,16	5862,27601
687,353	5719,41535
687,547	5839,50243
687,74	5740,121
687,934	6040,30671
688,127	5868,4869
688,32	5839,50243
688,514	5721,48593
688,707	5849,85412
688,9	5609,66866
689,094	5785,67199
689,287	5675,93217
689,48	5586,88963
689,674	5738,05045
689,867	5758,75573
690,06	5504,05272
690,253	5704,92115
690,447	5611,73946
690,64	5698,7093
690,833	5547,54289
691,026	5636,58871
691,219	5470,91618
691,412	5533,04636
691,605	5601,38543
691,799	5615,88104
691,992	5711,13298
692,185	5586,88963
692,378	5431,56522
692,571	5601,38543
692,764	5514,40768
692,957	5810,51716
693,15	5706,99177
693,343	5533,04636
693,536	5543,40104
693,729	5777,39014
693,921	5582,74793
694,114	5584,81878
694,307	5742,19154
694,5	5767,03773
694,693	5777,39014
694,886	5646,94239
695,079	5568,25188
695,271	5501,98172
695,464	5762,89674
695,657	5628,30569
695,85	5769,10822
696,042	5804,30592
696,235	5688,35612
696,428	5711,13298
696,62	5735,9799
696,813	5843,64312
697,006	5773,24919
697,198	5889,1896
697,391	5756,68522
697,584	5959,57568
697,776	5843,64312
697,969	5928,52359
698,161	5849,85412
698,354	6015,46707
698,546	5860,20571
698,739	6096,19367
698,931	5876,76803
699,124	6143,79865
699,316	6015,46707
699,509	6133,44993
699,701	6123,10111
699,893	6116,89177
700,086	6133,44993
700,278	6296,94716
700,47	6137,58943
700,663	6181,05315
700,855	6154,14726
701,047	6121,03133
701,24	6317,64109
701,432	6292,80832
701,624	6102,40314
701,816	6193,47101
702,008	6433,51906
702,201	6265,90545
702,393	6456,27919
702,585	6332,12659
702,777	6419,03507
702,969	6543,17657
703,161	6456,27919
703,353	6427,31166
703,546	6427,31166
703,738	6412,82757
703,93	6185,19246
704,122	6514,21165
704,314	6313,50234
704,506	6561,79642
704,698	6541,10768
704,89	6547,31435
705,082	6352,81978
705,273	6313,50234
705,465	6483,17683
705,657	6456,27919
705,849	6489,38388
706,041	6611,44758
706,233	6454,21011
706,425	6675,57649
706,616	6468,69358
706,808	6799,6846
707	6458,34827
707,192	6698,33087
707,383	6462,4864
707,575	6603,17256
707,767	6412,82757
707,959	6505,93579
708,15	6530,76314
708,342	6656,95887
708,534	6636,27219
708,725	6508,00476
708,917	6510,07373
709,108	6613,51632
709,3	6476,96975
709,491	6474,90071
709,683	6510,07373
709,875	6474,90071
710,066	6464,55547
710,258	6582,48472
710,449	6406,62004
710,64	6392,13565
710,832	6559,72757
711,023	6592,8287
711,215	6489,38388
711,406	6414,89674
711,597	6518,34955
711,789	6499,72886
711,98	6499,72886
712,171	6539,03878
712,363	6472,83167
712,554	6392,13565
712,745	6555,58984
712,937	6336,26526
713,128	6183,12281
713,319	6522,48743
713,51	6307,29418
713,701	6207,95832
713,893	6301,08598
714,084	6282,46115
714,275	6212,09751
714,466	6274,18333
714,657	6145,86838
714,848	6187,2621
715,039	6125,17088
715,23	6317,64109
715,421	6079,63489
715,612	6193,47101
715,803	6098,2635
715,994	6021,67703
716,185	6121,03133
716,376	5953,36533
716,567	5930,59376
716,758	5998,90697
716,949	5700,77992
717,14	5994,76691
717,331	5723,55651
717,522	5684,21482
717,712	5837,43208
717,903	5808,44675
718,094	5640,73019
718,285	5750,47367
718,476	5613,81025
718,666	5615,88104
718,857	5530,97541
719,048	5601,38543
719,238	5485,41354
719,429	5512,3367
719,62	5311,4325
719,81	5301,07562
720,001	5348,71647
720,192	5311,4325
720,382	5098,0613
720,573	5340,43126
720,763	5037,97861
720,954	5218,21708
721,144	4984,10868
721,335	5040,05048
721,525	5019,33162
721,716	4988,25261
721,906	4930,23622
722,097	4911,58747
722,287	4878,43339
722,478	4834,91723
722,668	4801,76096
722,858	4673,27156
723,049	4718,86618
723,239	4536,47716
723,429	4745,80763
723,62	4538,54992
723,81	4540,62268
724	4480,5113
724,191	4364,42566
724,381	4300,15918
724,571	4188,20307
724,761	4358,20647
724,951	4407,95908
725,142	4254,54867
725,332	4109,41302
725,522	4111,48651
725,712	4109,41302
725,902	3947,67043
726,092	4119,78042
726,282	3868,86517
726,472	4016,10255
726,662	3997,43961
726,852	3729,90705
727,042	3850,20004
727,232	3686,34988
727,422	3761,0184
727,612	3800,42502
727,802	3580,56195
727,992	3640,71695
728,182	3470,6162
728,372	3412,52784
728,562	3495,5104
728,752	3315,01648
728,942	3427,05018
729,131	3420,82634
729,321	3238,24703
729,511	3171,84814
729,701	3165,62307
729,89	3167,6981
730,08	3192,59816
730,27	3005,83598
730,46	3039,04012
730,649	2949,80207
730,839	2978,85699
731,029	2974,70633
731,218	2806,59323
731,408	2686,20249
731,597	2800,3664
731,787	2806,59323
731,977	2792,06391
732,166	2719,41486
732,356	2787,91265
732,545	2567,87647
732,735	2561,64848
732,924	2501,44304
733,114	2580,33236
733,303	2366,48947
733,492	2376,87102
733,682	2414,24391
733,871	2443,31095
734,061	2345,72611
734,25	2378,94732
734,439	2318,73324
734,629	2229,44499
734,818	2189,99003
735,007	2264,74575
735,197	2160,91716
735,386	2127,69019
735,575	2135,99701
735,764	2133,92031
735,954	2067,46405
736,143	2007,23498
736,332	2148,45715
736,521	1965,69598
736,71	1992,69649
736,899	1984,3887
737,088	1905,46193
737,278	1955,31101
737,467	1947,00297
737,656	1793,29404
737,845	1784,9849
738,034	1853,53364
738,223	1807,83491
738,412	1820,29837
738,601	1768,36643
738,79	1627,10017
738,979	1703,96771
739,168	1656,18577
739,356	1550,22763
739,545	1622,94503
739,734	1589,70334
739,923	1637,48797
740,112	1587,62571
740,301	1622,94503
740,489	1550,22763
740,678	1458,80504
740,867	1442,18198
741,056	1583,47042
741,245	1413,09104
741,433	1506,59502
741,622	1448,41566
741,811	1465,03863
741,999	1481,66136
742,188	1483,73919
742,377	1350,75082
742,565	1429,71452
742,754	1388,15536
742,942	1300,87619
743,131	1278,01624
743,319	1265,54698
743,508	1309,18878
743,697	1309,18878
743,885	1253,07759
744,073	1232,29495
744,262	1267,6252
744,45	1269,70342
744,639	1149,16051
744,827	1273,85984
745,016	1180,33666
745,204	1120,06198
745,392	1165,7879
745,581	1188,65015
745,769	1130,4544
745,957	1176,17989
746,146	1111,74797
746,334	1196,96358
746,522	1030,68304
746,71	1109,66946
746,899	1182,41504
747,087	1036,91902
747,275	1122,14047
747,463	984,95141
747,651	1045,2336
747,84	1093,04122
748,028	999,5026
748,216	997,42387
748,404	1045,2336
748,592	1020,28966
748,78	1011,97488
748,968	905,95579
749,156	972,47881
749,344	949,61199
749,532	945,45434
749,72	945,45434
749,908	847,74469
750,096	947,53317
750,284	947,53317
750,472	962,08486
750,66	999,5026
750,847	943,3755
751,035	868,53474
751,223	864,37676
751,411	949,61199
751,599	955,84845
751,787	829,03328
751,974	766,65949
752,162	856,06076
752,35	831,11234
752,537	910,1136
752,725	891,40332
752,913	856,06076
753,101	839,42855
753,288	797,84686
753,476	816,55883
753,663	856,06076
753,851	864,37676
754,039	818,63791
754,226	847,74469
754,414	789,53032
754,601	781,21371
754,789	793,6886
754,976	783,29287
755,164	768,73867
755,351	810,32154
755,539	822,79607
755,726	841,50759
755,913	772,89704
756,101	779,13455
756,288	679,32975
756,476	781,21371
756,663	781,21371
756,85	710,51981
757,037	646,05929
757,225	683,48848
757,412	735,47116
757,599	743,78814
757,787	729,23338
757,974	695,96457
758,161	772,89704
758,348	637,7415
758,535	745,86738
758,722	750,02583
758,91	716,75771
759,097	710,51981
759,284	650,21816
759,471	712,59911
759,658	585,75373
759,845	698,0439
760,032	633,58258
760,219	789,53032
760,406	658,53584
760,593	671,01224
760,78	581,59459
760,967	668,93285
761,154	606,54917
761,341	677,25038
761,528	679,32975
761,715	560,79863
761,901	608,62869
762,088	627,34417
762,275	633,58258
762,462	679,32975
762,649	621,10571
762,835	594,07196
763,022	600,31058
763,209	619,02622
763,396	587,8333
763,582	616,94672
763,769	621,10571
763,956	535,84289
764,142	600,31058
764,329	675,17101
764,516	627,34417
764,702	616,94672
764,889	546,24119
765,075	548,32084
765,262	623,1852
765,448	550,40048
765,635	652,29759
765,821	683,48848
766,008	639,82095
766,194	510,88651
766,381	540,00222
766,567	591,99241
766,754	552,48012
766,94	639,82095
767,127	600,31058
767,313	610,7082
767,499	535,84289
767,686	562,87825
767,872	602,39012
768,058	602,39012
768,244	546,24119
768,431	591,99241
768,617	579,51502
768,803	512,96623
768,989	591,99241
769,176	583,67417
769,362	577,43544
769,548	666,85346
769,734	500,48782
769,92	552,48012
770,106	519,20537
770,292	454,73228
770,478	527,52417
770,664	510,88651
770,851	596,15151
771,037	562,87825
771,223	463,05163
771,409	512,96623
771,594	492,1688
771,78	558,71901
771,966	438,09336
772,152	529,60385
772,338	546,24119
772,524	548,32084
772,71	469,2911
772,896	512,96623
773,082	554,55975
773,267	591,99241
773,453	485,92948
773,639	504,64731
773,825	504,64731
774,011	404,81464
774,196	531,68354
774,382	508,80678
774,568	429,77379
774,753	521,28508
774,939	546,24119
775,125	469,2911
775,31	602,39012
775,496	521,28508
775,681	458,89197
775,867	583,67417
776,053	429,77379
776,238	450,57258
776,424	408,97454
776,609	440,17324
776,795	577,43544
776,98	521,28508
777,166	423,53406
777,351	481,76991
777,536	544,16154
777,722	571,19667
777,907	467,21128
778,093	519,20537
778,278	473,45072
778,463	508,80678
778,649	438,09336
778,834	498,40807
779,019	467,21128
779,204	469,2911
779,39	452,65243
779,575	496,32832
779,76	473,45072
779,945	490,08903
780,13	396,49478
780,316	496,32832
780,501	454,73228
780,686	423,53406
780,871	448,49272
781,056	458,89197
781,241	463,05163
781,426	450,57258
781,611	460,9718
781,796	448,49272
781,981	502,56757
782,166	413,13443
782,351	465,13146
782,536	421,45415
782,721	369,45471
782,906	379,85483
783,091	454,73228
783,276	377,77482
783,461	483,8497
783,646	342,41387
783,83	392,33482
784,015	433,93358
784,2	512,96623
784,385	365,29463
784,57	448,49272
784,754	406,89459
784,939	332,01333
785,124	408,97454
785,308	456,81213
785,493	361,13454
785,678	415,21437
785,862	356,97442
786,047	356,97442
786,232	344,49396
786,416	346,57405
786,601	377,77482
786,785	277,92867
786,97	381,93484
787,154	255,04573
787,339	396,49478
787,523	425,61398
787,708	334,09345
787,892	398,57475
788,077	379,85483
788,261	325,77296
788,446	319,53254
788,63	361,13454
788,814	340,33377
788,999	463,05163
789,183	377,77482
789,367	296,65064
789,552	325,77296
789,736	386,09485
789,92	371,53475
790,104	325,77296
790,289	367,37468
790,473	390,25483
790,657	367,37468
790,841	288,32981
791,025	282,08914
791,21	277,92867
791,394	344,49396
791,578	344,49396
791,762	359,05448
791,946	373,61477
792,13	275,84842
792,314	346,57405
792,498	408,97454
792,682	411,05449
792,866	302,89122
793,05	252,96544
793,234	280,00891
793,418	223,8408
793,602	425,61398
793,786	313,29208
793,97	255,04573
794,153	338,25367
794,337	290,41003
794,521	340,33377
794,705	354,89436
794,889	367,37468
795,073	296,65064
795,256	232,16222
795,44	277,92867
795,624	350,73421
795,807	307,05157
795,991	325,77296
796,175	240,48357
796,358	234,24257
796,542	228,00152
796,726	298,73084
796,909	294,57044
797,093	307,05157
797,277	302,89122
797,46	309,13175
797,644	265,44714
797,827	313,29208
798,011	340,33377
798,194	217,59969
798,378	323,69282
798,561	282,08914
798,744	304,9714
798,928	228,00152
799,111	257,12602
799,295	315,37224
799,478	240,48357
799,661	209,27813
799,845	246,72452
800,028	273,76818
800,211	302,89122
800,395	203,03692
800,578	265,44714
800,761	221,76044
800,944	207,19773
801,127	267,5274
801,311	192,63479
801,494	232,16222
801,677	188,47391
801,86	203,03692
802,043	252,96544
802,226	194,71523
802,409	198,87608
802,593	280,00891
802,776	292,49024
802,959	250,88514
803,142	221,76044
803,325	265,44714
803,508	167,66921
803,691	169,7497
803,874	223,8408
804,056	246,72452
804,239	198,87608
804,422	228,00152
804,605	180,15209
804,788	128,13893
804,971	126,05834
805,154	236,3229
805,336	250,88514
805,519	180,15209
805,702	250,88514
805,885	107,3328
806,068	109,41344
806,25	236,3229
806,433	175,99115
806,616	277,92867
806,798	257,12602
806,981	194,71523
807,164	205,11733
807,346	94,84889
807,529	221,76044
807,711	244,64421
807,894	238,40324
808,076	200,9565
808,259	209,27813
808,442	242,56389
808,624	246,72452
808,806	167,66921
808,989	182,23255
809,171	144,78347
809,354	173,91067
809,536	151,02509
809,719	198,87608
809,901	219,68006
810,083	192,63479
810,266	190,55436
810,448	194,71523
810,63	165,58871
810,813	67,79981
810,995	148,94456
811,177	203,03692
811,359	192,63479
811,542	103,17152
811,724	178,07162
811,906	169,7497
812,088	117,73593
812,27	157,26667
812,452	192,63479
812,634	159,34719
812,817	163,50821
812,999	203,03692
813,181	203,03692
813,363	111,49407
813,545	44,91147
813,727	117,73593
813,909	142,70292
814,091	155,18615
814,273	121,89714
814,455	213,43892
814,637	119,81654
814,818	161,4277
815	209,27813
815,182	184,31301
815,364	105,25216
815,546	184,31301
815,728	163,50821
815,909	90,68755
816,091	82,36481
816,273	126,05834
816,455	99,01022
816,636	121,89714
816,818	190,55436
817	82,36481
817,182	82,36481
817,363	136,46124
817,545	180,15209
817,726	157,26667
817,908	107,3328
818,09	128,13893
818,271	126,05834
818,453	109,41344
818,634	78,2034
818,816	119,81654
818,997	142,70292
819,179	90,68755
819,36	119,81654
819,542	105,25216
819,723	126,05834
819,905	157,26667
820,086	128,13893
820,267	92,76823
820,449	88,60687
820,63	148,94456
820,811	61,5576
820,993	38,66909
821,174	165,58871
821,355	92,76823
821,536	74,04198
821,718	121,89714
821,899	126,05834
822,08	153,10562
822,261	103,17152
822,442	69,88054
822,624	96,92956
822,805	115,65531
822,986	71,96126
823,167	92,76823
823,348	63,63834
823,529	17,86083
823,71	36,58828
823,891	109,41344
824,072	19,94168
824,253	63,63834
824,434	132,30009
824,615	76,1227
824,796	157,26667
824,977	38,66909
825,158	63,63834
825,339	123,97774
825,52	7,45651
825,7	107,3328
825,881	46,99225
826,062	109,41344
826,243	128,13893
826,424	65,71908
826,604	28,26502
826,785	42,83068
826,966	19,94168
827,147	9,53738
827,327	132,30009
827,508	-32,08106
827,689	115,65531
827,869	76,1227
828,05	65,71908
828,231	-46,648
828,411	128,13893
828,592	49,07303
828,772	24,10336
828,953	49,07303
829,133	76,1227
829,314	105,25216
829,494	40,74989
829,675	74,04198
829,855	74,04198
830,036	119,81654
830,216	51,1538
830,396	32,42666
830,577	24,10336
830,757	107,3328
830,938	42,83068
831,118	-9,19067
831,298	28,26502
831,479	40,74989
831,659	36,58828
831,839	36,58828
832,019	53,23457
832,199	67,79981
832,38	99,01022
832,56	38,66909
832,74	76,1227
832,92	51,1538
833,1	78,2034
833,28	24,10336
833,461	22,02252
833,641	36,58828
833,821	132,30009
834,001	26,18419
834,181	-21,67626
834,361	80,28411
834,541	101,09087
834,721	-13,35251
834,901	94,84889
835,081	22,02252
835,261	92,76823
835,44	-96,59371
835,62	1,21385
835,8	55,31534
835,98	42,83068
836,16	7,45651
836,34	42,83068
836,52	28,26502
836,699	71,96126
836,879	119,81654
837,059	53,23457
837,239	53,23457
837,418	109,41344
837,598	113,57469
837,778	46,99225
837,957	67,79981
838,137	55,31534
838,317	-92,43145
838,496	96,92956
838,676	71,96126
838,855	36,58828
839,035	-7,10975
839,214	-25,83817
839,394	30,34584
839,573	34,50748
839,753	-7,10975
839,932	49,07303
840,112	53,23457
840,291	34,50748
840,471	99,01022
840,65	32,42666
840,829	107,3328
841,009	105,25216
841,188	11,61825
841,367	57,39609
841,547	78,2034
841,726	94,84889
841,905	30,34584
842,085	30,34584
842,264	7,45651
842,443	17,86083
842,622	105,25216
842,801	17,86083
842,981	34,50748
843,16	7,45651
843,339	86,52619
843,518	-11,27159
843,697	94,84889
843,876	32,42666
844,055	90,68755
844,234	55,31534
844,413	63,63834
844,592	51,1538
844,771	-21,67626
844,95	40,74989
845,129	26,18419
845,308	55,31534
845,487	3,29474
845,666	38,66909
845,845	24,10336
846,024	3,29474
846,202	76,1227
846,381	42,83068
846,56	-2,94794
846,739	19,94168
846,918	-27,91913
847,096	-0,86704
847,275	90,68755
847,454	-57,05311
847,633	34,50748
847,811	17,86083
847,99	-42,486
848,169	-5,02884
848,347	99,01022
848,526	36,58828
848,704	36,58828
848,883	74,04198
849,062	-36,24302
849,24	44,91147
849,419	76,1227
849,597	9,53738
849,776	49,07303
849,954	38,66909
850,133	17,86083
850,311	3,29474
850,49	-21,67626
850,668	32,42666
850,846	76,1227
851,025	-67,45835
851,203	34,50748
851,381	42,83068
851,56	36,58828
851,738	-30,00009
851,916	-13,35251
852,095	57,39609
852,273	-5,02884
852,451	51,1538
852,629	-44,567
852,807	-11,27159
852,986	11,61825
853,164	46,99225
853,342	53,23457
853,52	92,76823
853,698	26,18419
853,876	42,83068
854,054	5,37563
854,232	-32,08106
854,41	-79,94481
854,588	119,81654
854,766	-25,83817
854,944	17,86083
855,122	19,94168
855,3	13,69911
855,478	9,53738
855,656	-59,13415
855,834	-9,19067
856,012	34,50748
856,19	13,69911
856,368	-67,45835
856,545	-100,75598
856,723	-30,00009
856,901	7,45651
857,079	30,34584
857,256	-38,32401
857,434	74,04198
857,612	59,47685
857,79	-9,19067
857,967	101,09087
858,145	46,99225
858,323	65,71908
858,5	69,88054
858,678	11,61825
858,855	-17,51438
859,033	-27,91913
859,211	-59,13415
859,388	-36,24302
859,566	92,76823
859,743	-34,16204
859,921	71,96126
860,098	-0,86704
860,276	-86,18811
860,453	11,61825
860,63	28,26502
860,808	-27,91913
860,985	24,10336
861,162	-27,91913
861,34	-2,94794
861,517	-57,05311
861,694	76,1227
861,872	-46,648
862,049	42,83068
862,226	5,37563
862,403	32,42666
862,581	-5,02884
862,758	5,37563
862,935	44,91147
863,112	1,21385
863,289	-25,83817
863,467	51,1538
863,644	13,69911
863,821	80,28411
863,998	78,2034
864,175	32,42666
864,352	36,58828
864,529	1,21385
864,706	-27,91913
864,883	-73,70156
865,06	-13,35251
865,237	38,66909
865,414	69,88054
865,591	92,76823
865,768	61,5576
865,944	80,28411
866,121	-98,67484
866,298	59,47685
866,475	57,39609
866,652	-44,567
866,829	9,53738
867,005	40,74989
867,182	-9,19067
867,359	-0,86704
867,536	26,18419
867,712	24,10336
867,889	65,71908
868,066	99,01022
868,242	53,23457
868,419	-25,83817
868,596	24,10336
868,772	15,77997
868,949	40,74989
869,125	46,99225
869,302	65,71908
869,478	-9,19067
869,655	3,29474
869,831	-63,29624
870,008	-27,91913
870,184	24,10336
870,361	-42,486
870,537	-7,10975
870,714	-11,27159
870,89	63,63834
871,066	115,65531
871,243	11,61825
871,419	28,26502
871,595	-52,89105
871,772	-52,89105
871,948	19,94168
872,124	-48,72901
872,3	5,37563
872,477	46,99225
872,653	1,21385
872,829	30,34584
873,005	-9,19067
873,181	-27,91913
873,357	-2,94794
873,533	44,91147
873,71	42,83068
873,886	-84,107
874,062	-32,08106
874,238	-40,405
874,414	9,53738
874,59	-17,51438
874,766	65,71908
874,942	-21,67626
875,118	19,94168
875,294	36,58828
875,47	-9,19067
875,645	-21,67626
875,821	-11,27159
875,997	-73,70156
876,173	-52,89105
876,349	3,29474
876,525	63,63834
876,7	30,34584
876,876	15,77997
877,052	17,86083
877,228	-44,567
877,403	-32,08106
877,579	84,4455
877,755	24,10336
877,931	-9,19067
878,106	-69,53941
878,282	69,88054
878,457	19,94168
878,633	44,91147
878,809	57,39609
878,984	-57,05311
879,16	1,21385
879,335	17,86083
879,511	-19,59532
879,686	-38,32401
879,862	11,61825
880,037	44,91147
880,213	-13,35251
880,388	17,86083
880,563	-52,89105
880,739	59,47685
880,914	-48,72901
881,089	-2,94794
881,265	86,52619
881,44	5,37563
881,615	15,77997
881,791	28,26502
881,966	-32,08106
882,141	42,83068
882,316	26,18419
882,492	-5,02884
882,667	42,83068
882,842	40,74989
883,017	-42,486
883,192	-13,35251
883,367	59,47685
883,542	-17,51438
883,718	24,10336
883,893	3,29474
884,068	-36,24302
884,243	-42,486
884,418	-21,67626
884,593	-75,78263
884,768	-19,59532
884,943	105,25216
885,117	7,45651
885,292	1,21385
885,467	49,07303
885,642	46,99225
885,817	51,1538
885,992	3,29474
886,167	-34,16204
886,342	-42,486
886,516	-2,94794
886,691	-5,02884
886,866	26,18419
887,041	32,42666
887,215	-21,67626
887,39	13,69911
887,565	-32,08106
887,739	57,39609
887,914	32,42666
888,089	-11,27159
888,263	13,69911
888,438	49,07303
888,612	40,74989
888,787	69,88054
888,962	71,96126
889,136	17,86083
889,311	-17,51438
889,485	7,45651
889,659	30,34584
889,834	42,83068
890,008	-100,75598
890,183	19,94168
890,357	-71,62048
890,532	-40,405
890,706	-54,97208
890,88	65,71908
891,055	-36,24302
891,229	9,53738
891,403	-54,97208
891,577	-32,08106
891,752	24,10336
891,926	17,86083
892,1	-17,51438
892,274	96,92956
892,449	-75,78263
892,623	-79,94481
892,797	24,10336
892,971	53,23457
893,145	-15,43344
893,319	-9,19067
893,493	-57,05311
893,667	-30,00009
893,841	-11,27159
894,015	-30,00009
894,189	-9,19067
894,363	11,61825
894,537	55,31534
894,711	34,50748
894,885	1,21385
895,059	32,42666
895,233	-23,75721
895,407	-40,405
895,581	-21,67626
895,755	7,45651
895,928	-13,35251
896,102	-17,51438
896,276	11,61825
896,45	51,1538
896,623	65,71908
896,797	42,83068
896,971	-50,81003
897,145	-2,94794
897,318	7,45651
897,492	15,77997
897,666	107,3328
897,839	-67,45835
898,013	-32,08106
898,186	-5,02884
898,36	-38,32401
898,534	-13,35251
898,707	49,07303
898,881	24,10336
899,054	5,37563
899,228	55,31534
899,401	-7,10975
899,574	-54,97208
899,748	-9,19067
899,921	26,18419
900,095	-15,43344
900,268	7,45651
900,441	5,37563
900,615	82,36481
900,788	36,58828
900,961	-50,81003
901,135	-113,24294
901,308	-11,27159
901,481	-67,45835
901,654	38,66909
901,828	11,61825
902,001	-40,405
902,174	51,1538
902,347	-75,78263
902,52	1,21385
902,693	-123,64888
902,866	36,58828
903,04	-9,19067
903,213	-71,62048
903,386	-5,02884
903,559	32,42666
903,732	13,69911
903,905	-59,13415
904,078	-44,567
904,251	42,83068
904,424	19,94168
904,596	1,21385
904,769	-59,13415
904,942	51,1538
905,115	-5,02884
905,288	-19,59532
905,461	11,61825
905,634	-30,00009
905,806	-21,67626
905,979	-23,75721
906,152	26,18419
906,325	-44,567
906,497	13,69911
906,67	17,86083
906,843	3,29474
907,015	-9,19067
907,188	5,37563
907,361	-27,91913
907,533	3,29474
907,706	-40,405
907,878	32,42666
908,051	9,53738
908,224	42,83068
908,396	-73,70156
908,569	-30,00009
908,741	32,42666
908,914	7,45651
909,086	-17,51438
909,258	-34,16204
909,431	38,66909
909,603	11,61825
909,776	-0,86704
909,948	-59,13415
910,12	28,26502
910,293	9,53738
910,465	55,31534
910,637	-38,32401
910,81	-42,486
910,982	-23,75721
911,154	-5,02884
911,326	1,21385
911,498	-40,405
911,671	-75,78263
911,843	7,45651
912,015	-52,89105
912,187	11,61825
912,359	-50,81003
912,531	-21,67626
912,703	-38,32401
912,875	1,21385
913,047	46,99225
913,219	32,42666
913,391	26,18419
913,563	-27,91913
913,735	-75,78263
913,907	5,37563
914,079	-88,26921
914,251	7,45651
914,423	-27,91913
914,595	53,23457
914,767	-7,10975
914,939	5,37563
915,11	28,26502
915,282	-11,27159
915,454	1,21385
915,626	-13,35251
915,797	51,1538
915,969	42,83068
916,141	-2,94794
916,313	-63,29624
916,484	5,37563
916,656	36,58828
916,828	-38,32401
916,999	-15,43344
917,171	-2,94794
917,342	5,37563
917,514	-36,24302
917,685	-23,75721
917,857	-104,91828
918,028	-44,567
918,2	55,31534
918,371	-111,16176
918,543	53,23457
918,714	-127,81129
918,886	-11,27159
919,057	84,4455
919,229	-57,05311
919,4	13,69911
919,571	34,50748
919,743	13,69911
919,914	-46,648
920,085	-100,75598
920,256	26,18419
920,428	19,94168
920,599	30,34584
920,77	17,86083
920,941	-88,26921
921,113	-54,97208
921,284	-15,43344
921,455	34,50748
921,626	-5,02884
921,797	-11,27159
921,968	-15,43344
922,139	-38,32401
922,31	19,94168
922,481	-86,18811
922,652	63,63834
922,823	-34,16204
922,994	51,1538
923,165	5,37563
923,336	-44,567
923,507	26,18419
923,678	28,26502
923,849	-46,648
924,02	59,47685
924,191	121,89714
924,362	7,45651
924,532	-69,53941
924,703	-69,53941
924,874	28,26502
925,045	5,37563
925,215	-84,107
925,386	-2,94794
925,557	9,53738
925,728	-19,59532
925,898	30,34584
926,069	-71,62048
926,24	9,53738
926,41	11,61825
926,581	1,21385
926,751	-57,05311
926,922	-52,89105
927,092	40,74989
927,263	-44,567
927,433	-30,00009
927,604	-38,32401
927,774	13,69911
927,945	-5,02884
928,115	-40,405
928,286	-48,72901
928,456	55,31534
928,627	17,86083
928,797	-11,27159
928,967	-92,43145
929,138	-30,00009
929,308	-90,35033
929,478	82,36481
929,648	-77,86372
929,819	15,77997
929,989	-15,43344
930,159	-46,648
930,329	32,42666
930,5	80,28411
930,67	78,2034
930,84	3,29474
931,01	-32,08106
931,18	-5,02884
931,35	-40,405
931,52	-27,91913
931,69	13,69911
931,86	24,10336
932,03	-106,99944
932,2	36,58828
932,37	5,37563
932,54	-40,405
932,71	40,74989
932,88	32,42666
933,05	-7,10975
933,22	-27,91913
933,39	-46,648
933,56	86,52619
933,73	-121,56768
933,899	61,5576
934,069	-11,27159
934,239	-48,72901
934,409	-19,59532
934,578	-40,405
934,748	-65,37729
934,918	5,37563
935,088	-59,13415
935,257	67,79981
935,427	-30,00009
935,596	36,58828
935,766	67,79981
935,936	11,61825
936,105	7,45651
936,275	-69,53941
936,444	17,86083
936,614	24,10336
936,783	-11,27159
936,953	-25,83817
937,122	59,47685
937,292	-25,83817
937,461	11,61825
937,631	22,02252
937,8	-30,00009
937,969	-34,16204
938,139	3,29474
938,308	26,18419
938,477	-11,27159
938,647	5,37563
938,816	3,29474
938,985	-11,27159
939,155	-54,97208
939,324	-73,70156
939,493	-11,27159
939,662	22,02252
939,831	-40,405
940,001	-32,08106
940,17	-9,19067
940,339	-36,24302
940,508	63,63834
940,677	-5,02884
940,846	19,94168
941,015	-34,16204
941,184	9,53738
941,353	-23,75721
941,522	1,21385
941,691	-15,43344
941,86	-13,35251
942,029	-34,16204
942,198	32,42666
942,367	-13,35251
942,536	-25,83817
942,705	-19,59532
942,873	-38,32401
943,042	-17,51438
943,211	46,99225
943,38	-5,02884
943,549	13,69911
943,717	17,86083
943,886	-17,51438
944,055	26,18419
944,224	1,21385
944,392	17,86083
944,561	3,29474
944,73	-50,81003
944,898	-9,19067
945,067	-9,19067
945,235	-38,32401
945,404	-19,59532
945,572	-59,13415
945,741	-71,62048
945,91	-63,29624
946,078	5,37563
946,247	22,02252
946,415	-92,43145
946,583	-2,94794
946,752	71,96126
946,92	-27,91913
947,089	22,02252
947,257	24,10336
947,425	-32,08106
947,594	-7,10975
947,762	42,83068
947,93	-61,21519
948,099	-30,00009
948,267	-9,19067
948,435	-63,29624
948,603	28,26502
948,772	1,21385
948,94	-7,10975
949,108	32,42666
949,276	-61,21519
949,444	-69,53941
949,612	-13,35251
949,78	32,42666
949,948	-13,35251
950,116	1,21385
950,285	-86,18811
950,453	5,37563
950,621	-25,83817
950,789	-27,91913
950,957	-50,81003
951,124	26,18419
951,292	59,47685
951,46	19,94168
951,628	-48,72901
951,796	-34,16204
951,964	-196,49413
952,132	-63,29624
952,3	-61,21519
952,467	-46,648
952,635	24,10336
952,803	-32,08106
952,971	-98,67484
953,138	84,4455
953,306	1,21385
953,474	-34,16204
953,641	3,29474
953,809	-25,83817
953,977	24,10336
954,144	36,58828
954,312	-21,67626
954,48	-27,91913
954,647	-34,16204
954,815	-30,00009
954,982	26,18419
955,15	34,50748
955,317	5,37563
955,485	3,29474
955,652	-2,94794
955,82	-92,43145
955,987	-17,51438
956,154	-44,567
956,322	26,18419
956,489	-82,0259
956,656	40,74989
956,824	3,29474
956,991	22,02252
957,158	-5,02884
957,326	15,77997
957,493	-13,35251
957,66	-44,567
957,827	-2,94794
957,994	17,86083
958,162	-34,16204
958,329	9,53738
958,496	-52,89105
958,663	-40,405
958,83	-96,59371
958,997	11,61825
959,164	-75,78263
959,331	1,21385
959,498	-34,16204
959,665	-23,75721
959,832	-2,94794
959,999	11,61825
960,166	28,26502
960,333	-25,83817
960,5	-25,83817
960,667	-32,08106
960,834	26,18419
961,001	-57,05311
961,168	-21,67626
961,334	-54,97208
961,501	24,10336
961,668	-117,4053
961,835	7,45651
962,002	-57,05311
962,168	-40,405
962,335	3,29474
962,502	-50,81003
962,668	-96,59371
962,835	11,61825
963,002	-50,81003
963,168	-23,75721
963,335	-13,35251
963,502	-40,405
963,668	-32,08106
963,835	-34,16204
964,001	-0,86704
964,168	-7,10975
964,334	-0,86704
964,501	-21,67626
964,667	-79,94481
964,834	-92,43145
965	7,45651
965,166	-54,97208
965,333	42,83068
965,499	1,21385
965,665	-21,67626
965,832	53,23457
965,998	17,86083
966,164	28,26502
966,331	-67,45835
966,497	-2,94794
966,663	-77,86372
966,829	7,45651
966,996	-69,53941
967,162	-46,648
967,328	13,69911
967,494	1,21385
967,66	11,61825
967,826	-111,16176
967,992	-44,567
968,158	-23,75721
968,324	40,74989
968,491	-52,89105
968,657	-90,35033
968,823	-27,91913
968,988	36,58828
969,154	11,61825
969,32	22,02252
969,486	-9,19067
969,652	-36,24302
969,818	30,34584
969,984	-15,43344
970,15	-57,05311
970,316	-30,00009
970,481	-27,91913
970,647	5,37563
970,813	28,26502
970,979	-84,107
971,144	-65,37729
971,31	-94,51258
971,476	38,66909
971,642	9,53738
971,807	32,42666
971,973	-9,19067
972,138	-2,94794
972,304	-69,53941
972,47	32,42666
972,635	36,58828
972,801	107,3328
972,966	-94,51258
973,132	-123,64888
973,297	-5,02884
973,463	-36,24302
973,628	-79,94481
973,794	-7,10975
973,959	-5,02884
974,125	-7,10975
974,29	-32,08106
974,455	-11,27159
974,621	7,45651
974,786	42,83068
974,951	-54,97208
975,117	32,42666
975,282	-36,24302
975,447	90,68755
975,612	-159,03005
975,778	-15,43344
975,943	-109,0806
976,108	22,02252
976,273	11,61825
976,438	15,77997
976,603	-9,19067
976,768	24,10336
976,934	-23,75721
977,099	-2,94794
977,264	40,74989
977,429	-0,86704
977,594	-21,67626
977,759	-17,51438
977,924	-94,51258
978,089	-5,02884
978,254	-46,648
978,418	-27,91913
978,583	-5,02884
978,748	13,69911
978,913	-57,05311
979,078	34,50748
979,243	-77,86372
979,408	-23,75721
979,572	-69,53941
979,737	49,07303
979,902	15,77997
980,067	22,02252
980,231	99,01022
980,396	-65,37729
980,561	-104,91828
980,725	32,42666
980,89	5,37563
981,055	-96,59371
981,219	-21,67626
981,384	-27,91913
981,548	-25,83817
981,713	13,69911
981,877	-48,72901
982,042	13,69911
982,206	-2,94794
982,371	-30,00009
982,535	-32,08106
982,7	7,45651
982,864	-2,94794
983,029	71,96126
983,193	1,21385
983,357	-34,16204
983,522	-63,29624
983,686	22,02252
983,85	-19,59532
984,015	-30,00009
984,179	-38,32401
984,343	22,02252
984,507	-15,43344
984,672	-36,24302
984,836	-40,405
985	-27,91913
985,164	-7,10975
985,328	-63,29624
985,492	-65,37729
985,656	-50,81003
985,821	-2,94794
985,985	-59,13415
986,149	-15,43344
986,313	-92,43145
986,477	-13,35251
986,641	-32,08106
986,805	-38,32401
986,969	-42,486
987,133	-71,62048
987,296	-7,10975
987,46	-25,83817
987,624	71,96126
987,788	-88,26921
987,952	-102,83713
988,116	32,42666
988,28	-30,00009
988,443	26,18419
988,607	-32,08106
988,771	-73,70156
988,935	57,39609
989,098	-32,08106
989,262	-5,02884
989,426	69,88054
989,589	11,61825
989,753	-79,94481
989,917	40,74989
990,08	-131,97372
990,244	46,99225
990,407	-15,43344
990,571	-15,43344
990,734	-0,86704
990,898	-0,86704
991,061	-52,89105
991,225	3,29474
991,388	-50,81003
991,552	65,71908
991,715	-67,45835
991,878	-61,21519
992,042	1,21385
992,205	19,94168
992,369	-34,16204
992,532	-46,648
992,695	-19,59532
992,858	-67,45835
993,022	-15,43344
993,185	-34,16204
993,348	-77,86372
993,511	-7,10975
993,675	-9,19067
993,838	36,58828
994,001	-21,67626
994,164	30,34584
994,327	-50,81003
994,49	-21,67626
994,653	42,83068
994,816	-40,405
994,979	-36,24302
995,142	-75,78263
995,305	-48,72901
995,468	7,45651
995,631	-38,32401
995,794	-48,72901
995,957	74,04198
996,12	24,10336
996,283	36,58828
996,446	38,66909
996,609	-59,13415
996,772	74,04198
996,934	-67,45835
997,097	22,02252
997,26	-86,18811
997,423	53,23457
997,585	-109,0806
997,748	40,74989
997,911	17,86083
998,074	5,37563
998,236	-82,0259
998,399	-13,35251
998,561	-21,67626
998,724	-46,648
998,887	-61,21519
999,049	-17,51438
999,212	-23,75721
999,374	71,96126
999,537	-2,94794
999,699	-40,405
999,862	-0,86704
1000,024	-50,81003
1000,187	30,34584
1000,349	-90,35033
1000,512	-9,19067
1000,674	15,77997
1000,836	-9,19067
1000,999	-32,08106
1001,161	-42,486
1001,323	-17,51438
1001,486	-17,51438
1001,648	-42,486
1001,81	-46,648
1001,972	-17,51438
1002,134	78,2034
1002,297	-9,19067
1002,459	28,26502
1002,621	-23,75721
1002,783	-84,107
1002,945	-11,27159
1003,107	-0,86704
1003,269	-2,94794
1003,432	-17,51438
1003,594	-34,16204
1003,756	-32,08106
1003,918	-96,59371
1004,08	-36,24302
1004,242	-0,86704
1004,404	-30,00009
1004,565	53,23457
1004,727	-61,21519
1004,889	22,02252
1005,051	-30,00009
1005,213	-36,24302
1005,375	34,50748
1005,537	-44,567
1005,698	-23,75721
1005,86	-82,0259
1006,022	67,79981
1006,184	-25,83817
1006,345	-27,91913
1006,507	-30,00009
1006,669	-5,02884
1006,831	15,77997
1006,992	-59,13415
1007,154	30,34584
1007,315	1,21385
1007,477	-40,405
1007,639	15,77997
1007,8	3,29474
1007,962	-61,21519
1008,123	-30,00009
1008,285	49,07303
1008,446	-21,67626
1008,608	-36,24302
1008,769	5,37563
1008,931	17,86083
1009,092	-30,00009
1009,253	-48,72901
1009,415	-2,94794
1009,576	-57,05311
1009,737	3,29474
1009,899	42,83068
1010,06	15,77997
1010,221	-82,0259
1010,382	-25,83817
1010,544	-15,43344
1010,705	69,88054
1010,866	-30,00009
1011,027	19,94168
1011,188	-75,78263
1011,35	-25,83817
1011,511	-32,08106
1011,672	-32,08106
1011,833	-32,08106
1011,994	-46,648
1012,155	-46,648
1012,316	-67,45835
1012,477	-9,19067
1012,638	-5,02884
1012,799	-7,10975
1012,96	-23,75721
1013,121	-59,13415
1013,282	7,45651
1013,443	-32,08106
1013,604	28,26502
1013,765	-34,16204
1013,925	-96,59371
1014,086	-54,97208
1014,247	24,10336
1014,408	-48,72901
1014,569	-9,19067
1014,729	-48,72901
1014,89	9,53738
1015,051	-34,16204
1015,211	-30,00009
1015,372	19,94168
1015,533	15,77997
1015,693	-17,51438
1015,854	28,26502
1016,015	-57,05311
1016,175	30,34584
1016,336	-63,29624
1016,496	-46,648
1016,657	76,1227
1016,817	-63,29624
1016,978	5,37563
1017,138	-32,08106
1017,299	-77,86372
1017,459	-9,19067
1017,62	-69,53941
1017,78	22,02252
1017,94	-25,83817
1018,101	-7,10975
1018,261	-71,62048
1018,421	-52,89105
1018,582	-2,94794
1018,742	-42,486
1018,902	-50,81003
1019,062	5,37563
1019,223	-40,405
1019,383	-11,27159
1019,543	-46,648
1019,703	57,39609
1019,863	-69,53941
1020,023	40,74989
1020,184	-82,0259
1020,344	-36,24302
1020,504	-5,02884
1020,664	-36,24302
1020,824	19,94168
1020,984	-25,83817
1021,144	-7,10975
1021,304	5,37563
1021,464	30,34584
1021,624	109,41344
1021,784	-13,35251
1021,943	15,77997
1022,103	-40,405
1022,263	-32,08106
1022,423	-17,51438
1022,583	80,28411
1022,743	19,94168
1022,902	-84,107
1023,062	-21,67626
1023,222	11,61825
1023,382	13,69911
1023,541	42,83068
1023,701	-54,97208
1023,861	22,02252
1024,02	34,50748
1024,18	-23,75721
1024,34	-46,648
1024,499	-23,75721
1024,659	-40,405
1024,818	28,26502
1024,978	40,74989
1025,137	-19,59532
1025,297	-96,59371
1025,456	-75,78263
1025,616	-61,21519
1025,775	-75,78263
1025,935	-44,567
1026,094	17,86083
1026,254	-34,16204
1026,413	-44,567
1026,572	11,61825
1026,732	22,02252
1026,891	-0,86704
1027,05	-17,51438
1027,21	-44,567
1027,369	-11,27159
1027,528	-102,83713
1027,687	32,42666
1027,846	-38,32401
1028,006	-86,18811
1028,165	-94,51258
1028,324	-36,24302
1028,483	-5,02884
1028,642	-7,10975
1028,801	5,37563
1028,96	96,92956
1029,119	13,69911
1029,278	34,50748
1029,437	15,77997
1029,596	-32,08106
1029,755	-2,94794
1029,914	96,92956
1030,073	32,42666
1030,232	-17,51438
1030,391	-75,78263
1030,55	-40,405
1030,709	-11,27159
1030,868	-17,51438
1031,026	-25,83817
1031,185	-9,19067
1031,344	28,26502
1031,503	30,34584
1031,662	-109,0806
1031,82	28,26502
1031,979	-30,00009
1032,138	42,83068
1032,296	-61,21519
1032,455	-21,67626
1032,614	-15,43344
1032,772	-7,10975
1032,931	-34,16204
1033,089	1,21385
1033,248	1,21385
1033,407	-17,51438
1033,565	19,94168
1033,724	-0,86704
1033,882	15,77997
1034,04	-5,02884
1034,199	-75,78263
1034,357	30,34584
1034,516	-38,32401
1034,674	-50,81003
1034,832	-57,05311
1034,991	-42,486
1035,149	-36,24302
1035,307	13,69911
1035,466	-38,32401
1035,624	-5,02884
1035,782	-30,00009
1035,941	-19,59532
1036,099	-102,83713
1036,257	-106,99944
1036,415	-40,405
1036,573	-2,94794
1036,731	30,34584
1036,889	46,99225
1037,048	57,39609
1037,206	-88,26921
1037,364	-27,91913
1037,522	5,37563
1037,68	13,69911
1037,838	7,45651
1037,996	7,45651
1038,154	7,45651
