Data from 17-06-meltmethod-300mgPTP-0.3PC-epinglesmall_FLMT001621__0__14-52-55-120.txt Node

Date: Thu Jun 18 14:52:55 EDT 2026
User: lucas
Spectrometer: FLMT00162
Trigger mode: 0
Integration Time (sec): 1,000000E-2
Scans to average: 1
Electric dark correction enabled: true
Nonlinearity correction enabled: true
Boxcar width: 0
XAxis mode: Wavelengths
Number of Pixels in Spectrum: 3648
>>>>>Begin Spectral Data<<<<<
345,274	9,88419
345,493	9,88419
345,712	9,88419
345,932	-27,5723
346,151	-13,00569
346,37	97,27633
346,59	30,69265
346,809	-37,97718
347,028	-19,24849
347,247	-40,05817
347,467	-52,54422
347,686	-19,24849
347,905	1,56067
348,124	59,82364
348,343	-8,84385
348,563	1,56067
348,782	59,82364
349,001	57,74289
349,22	11,96506
349,439	53,58137
349,658	16,12678
349,877	70,22733
350,096	11,96506
350,315	72,30805
350,534	-2,60112
350,753	28,61182
350,972	47,33905
351,191	34,85428
351,41	88,95365
351,629	-10,92477
351,848	22,36933
352,067	18,20764
352,286	70,22733
352,505	14,04592
352,724	39,01589
352,943	18,20764
353,162	16,12678
353,381	-110,8149
353,599	30,69265
353,818	47,33905
354,037	41,09669
354,256	32,77347
354,475	30,69265
354,693	39,01589
354,912	97,27633
355,131	-8,84385
355,35	70,22733
355,568	39,01589
355,787	63,98513
356,006	-31,73424
356,224	-21,32944
356,443	5,72244
356,661	18,20764
356,88	18,20764
357,099	45,25827
357,317	-19,24849
357,536	1,56067
357,754	49,41983
357,973	57,74289
358,191	97,27633
358,41	151,37185
358,628	116,00208
358,847	-58,78731
359,065	57,74289
359,284	-52,54422
359,502	-42,13916
359,721	66,06587
359,939	32,77347
360,157	86,87297
360,376	-35,89619
360,594	49,41983
360,813	7,80332
361,031	136,808
361,249	30,69265
361,467	-10,92477
361,686	16,12678
361,904	86,87297
362,122	51,5006
362,341	55,66213
362,559	1,56067
362,777	57,74289
362,995	101,43765
363,213	11,96506
363,431	97,27633
363,65	57,74289
363,868	-29,65327
364,086	74,38877
364,304	39,01589
364,522	39,01589
364,74	74,38877
364,958	34,85428
365,176	-50,46319
365,394	-44,22016
365,612	101,43765
365,83	145,13023
366,048	-8,84385
366,266	16,12678
366,484	59,82364
366,702	61,90439
366,92	-15,08662
367,138	116,00208
367,356	41,09669
367,574	3,64156
367,792	-23,41039
368,01	66,06587
368,227	107,67958
368,445	3,64156
368,663	-10,92477
368,881	7,80332
369,099	82,71159
369,316	36,93509
369,534	-52,54422
369,752	-65,03045
369,97	7,80332
370,187	-17,16755
370,405	63,98513
370,623	18,20764
370,84	91,03433
371,058	78,55019
371,276	41,09669
371,493	18,20764
371,711	70,22733
371,928	78,55019
372,146	1,56067
372,364	-17,16755
372,581	78,55019
372,799	-27,5723
373,016	-23,41039
373,234	-17,16755
373,451	57,74289
373,669	-35,89619
373,886	34,85428
374,103	20,28848
374,321	41,09669
374,538	-4,68203
374,756	93,115
374,973	82,71159
375,19	26,531
375,408	53,58137
375,625	80,63089
375,842	86,87297
376,06	45,25827
376,277	61,90439
376,494	88,95365
376,712	59,82364
376,929	-10,92477
377,146	34,85428
377,363	30,69265
377,581	18,20764
377,798	53,58137
378,015	59,82364
378,232	107,67958
378,449	26,531
378,666	36,93509
378,883	-56,70627
379,101	-25,49134
379,318	-17,16755
379,535	-0,52022
379,752	14,04592
379,969	74,38877
380,186	-0,52022
380,403	41,09669
380,62	66,06587
380,837	-19,24849
381,054	78,55019
381,271	-4,68203
381,488	66,06587
381,705	20,28848
381,921	-81,67905
382,138	76,46948
382,355	68,1466
382,572	16,12678
382,789	-65,03045
383,006	45,25827
383,223	116,00208
383,439	82,71159
383,656	61,90439
383,873	-13,00569
384,09	1,56067
384,306	120,1633
384,523	74,38877
384,74	-10,92477
384,957	39,01589
385,173	82,71159
385,39	113,92146
385,607	74,38877
385,823	59,82364
386,04	68,1466
386,256	32,77347
386,473	72,30805
386,69	24,45016
386,906	78,55019
387,123	57,74289
387,339	36,93509
387,556	47,33905
387,772	107,67958
387,989	88,95365
388,205	45,25827
388,422	-10,92477
388,638	9,88419
388,855	53,58137
389,071	22,36933
389,287	-6,76293
389,504	43,17748
389,72	45,25827
389,937	-69,19257
390,153	97,27633
390,369	49,41983
390,585	11,96506
390,802	84,79228
391,018	39,01589
391,234	101,43765
391,451	36,93509
391,667	9,88419
391,883	116,00208
392,099	76,46948
392,315	-13,00569
392,532	-19,24849
392,748	45,25827
392,964	95,19567
393,18	32,77347
393,396	-6,76293
393,612	72,30805
393,828	72,30805
394,044	147,21077
394,26	32,77347
394,477	78,55019
394,693	9,88419
394,909	68,1466
395,125	26,531
395,341	78,55019
395,557	109,76021
395,772	41,09669
395,988	132,64685
396,204	41,09669
396,42	59,82364
396,636	11,96506
396,852	116,00208
397,068	91,03433
397,284	-0,52022
397,5	24,45016
397,715	97,27633
397,931	32,77347
398,147	82,71159
398,363	20,28848
398,578	57,74289
398,794	9,88419
399,01	7,80332
399,226	11,96506
399,441	18,20764
399,657	53,58137
399,873	-50,46319
400,088	74,38877
400,304	47,33905
400,52	78,55019
400,735	-31,73424
400,951	28,61182
401,166	53,58137
401,382	51,5006
401,597	14,04592
401,813	111,84084
402,029	134,72743
402,244	55,66213
402,46	49,41983
402,675	47,33905
402,89	-2,60112
403,106	103,51829
403,321	30,69265
403,537	103,51829
403,752	-40,05817
403,968	1,56067
404,183	72,30805
404,398	-23,41039
404,614	93,115
404,829	78,55019
405,044	136,808
405,26	68,1466
405,475	3,64156
405,69	28,61182
405,905	47,33905
406,121	22,36933
406,336	61,90439
406,551	47,33905
406,766	138,88856
406,981	30,69265
407,196	59,82364
407,412	34,85428
407,627	47,33905
407,842	26,531
408,057	39,01589
408,272	-29,65327
408,487	16,12678
408,702	76,46948
408,917	70,22733
409,132	-19,24849
409,347	80,63089
409,562	78,55019
409,777	24,45016
409,992	72,30805
410,207	39,01589
410,422	55,66213
410,637	126,4051
410,852	45,25827
411,067	105,59894
411,282	138,88856
411,496	14,04592
411,711	-4,68203
411,926	59,82364
412,141	51,5006
412,356	39,01589
412,571	63,98513
412,785	-56,70627
413	-21,32944
413,215	3,64156
413,429	18,20764
413,644	80,63089
413,859	-8,84385
414,074	59,82364
414,288	55,66213
414,503	82,71159
414,718	88,95365
414,932	53,58137
415,147	24,45016
415,361	101,43765
415,576	-13,00569
415,79	22,36933
416,005	76,46948
416,22	111,84084
416,434	128,48569
416,649	118,08269
416,863	76,46948
417,077	120,1633
417,292	109,76021
417,506	80,63089
417,721	-4,68203
417,935	103,51829
418,15	-27,5723
418,364	3,64156
418,578	59,82364
418,793	138,88856
419,007	72,30805
419,221	105,59894
419,436	51,5006
419,65	11,96506
419,864	-27,5723
420,078	84,79228
420,293	14,04592
420,507	24,45016
420,721	-35,89619
420,935	55,66213
421,149	-21,32944
421,364	155,5329
421,578	66,06587
421,792	30,69265
422,006	-10,92477
422,22	34,85428
422,434	-35,89619
422,648	66,06587
422,862	30,69265
423,076	72,30805
423,29	24,45016
423,504	14,04592
423,718	103,51829
423,932	43,17748
424,146	34,85428
424,36	20,28848
424,574	39,01589
424,788	30,69265
425,002	-4,68203
425,216	41,09669
425,43	18,20764
425,644	39,01589
425,858	34,85428
426,071	22,36933
426,285	24,45016
426,499	61,90439
426,713	105,59894
426,927	3,64156
427,14	-10,92477
427,354	124,32451
427,568	134,72743
427,782	63,98513
427,995	39,01589
428,209	72,30805
428,423	36,93509
428,636	103,51829
428,85	26,531
429,063	-27,5723
429,277	26,531
429,491	18,20764
429,704	113,92146
429,918	24,45016
430,131	9,88419
430,345	-21,32944
430,558	36,93509
430,772	76,46948
430,985	24,45016
431,199	91,03433
431,412	80,63089
431,626	34,85428
431,839	36,93509
432,053	24,45016
432,266	32,77347
432,479	-2,60112
432,693	99,35699
432,906	84,79228
433,119	-13,00569
433,333	61,90439
433,546	43,17748
433,759	78,55019
433,973	16,12678
434,186	97,27633
434,399	-10,92477
434,612	70,22733
434,825	30,69265
435,039	-37,97718
435,252	68,1466
435,465	-60,86835
435,678	-15,08662
435,891	76,46948
436,104	1,56067
436,318	78,55019
436,531	101,43765
436,744	57,74289
436,957	45,25827
437,17	-4,68203
437,383	105,59894
437,596	95,19567
437,809	53,58137
438,022	76,46948
438,235	-10,92477
438,448	72,30805
438,661	9,88419
438,874	-23,41039
439,086	103,51829
439,299	43,17748
439,512	47,33905
439,725	78,55019
439,938	32,77347
440,151	5,72244
440,364	41,09669
440,576	63,98513
440,789	26,531
441,002	66,06587
441,215	-2,60112
441,427	28,61182
441,64	39,01589
441,853	32,77347
442,066	41,09669
442,278	39,01589
442,491	88,95365
442,704	-31,73424
442,916	61,90439
443,129	61,90439
443,341	55,66213
443,554	118,08269
443,767	53,58137
443,979	47,33905
444,192	84,79228
444,404	5,72244
444,617	28,61182
444,829	5,72244
445,042	34,85428
445,254	99,35699
445,467	84,79228
445,679	22,36933
445,892	-10,92477
446,104	116,00208
446,316	57,74289
446,529	-0,52022
446,741	-31,73424
446,953	-35,89619
447,166	57,74289
447,378	53,58137
447,59	78,55019
447,803	20,28848
448,015	51,5006
448,227	-17,16755
448,439	55,66213
448,652	55,66213
448,864	-10,92477
449,076	70,22733
449,288	70,22733
449,5	43,17748
449,712	43,17748
449,925	76,46948
450,137	-6,76293
450,349	-6,76293
450,561	-25,49134
450,773	36,93509
450,985	91,03433
451,197	107,67958
451,409	53,58137
451,621	16,12678
451,833	80,63089
452,045	16,12678
452,257	70,22733
452,469	109,76021
452,681	-25,49134
452,893	-15,08662
453,105	70,22733
453,317	68,1466
453,529	57,74289
453,74	-21,32944
453,952	20,28848
454,164	-31,73424
454,376	32,77347
454,588	91,03433
454,799	122,24391
455,011	97,27633
455,223	28,61182
455,435	-17,16755
455,646	-4,68203
455,858	39,01589
456,07	105,59894
456,281	-35,89619
456,493	7,80332
456,705	9,88419
456,916	43,17748
457,128	84,79228
457,34	-10,92477
457,551	49,41983
457,763	16,12678
457,974	-4,68203
458,186	20,28848
458,397	30,69265
458,609	32,77347
458,82	86,87297
459,032	43,17748
459,243	43,17748
459,455	59,82364
459,666	49,41983
459,878	43,17748
460,089	82,71159
460,3	103,51829
460,512	28,61182
460,723	99,35699
460,934	61,90439
461,146	99,35699
461,357	51,5006
461,568	-48,38218
461,78	-21,32944
461,991	34,85428
462,202	3,64156
462,413	86,87297
462,625	61,90439
462,836	1,56067
463,047	57,74289
463,258	93,115
463,469	22,36933
463,68	43,17748
463,891	70,22733
464,103	-8,84385
464,314	36,93509
464,525	80,63089
464,736	11,96506
464,947	-15,08662
465,158	7,80332
465,369	63,98513
465,58	97,27633
465,791	18,20764
466,002	36,93509
466,213	74,38877
466,424	18,20764
466,635	-44,22016
466,846	107,67958
467,056	-10,92477
467,267	124,32451
467,478	49,41983
467,689	151,37185
467,9	107,67958
468,111	51,5006
468,322	28,61182
468,532	124,32451
468,743	-0,52022
468,954	16,12678
469,165	86,87297
469,375	26,531
469,586	7,80332
469,797	82,71159
470,007	53,58137
470,218	9,88419
470,429	103,51829
470,639	78,55019
470,85	32,77347
471,061	-19,24849
471,271	45,25827
471,482	-19,24849
471,692	51,5006
471,903	7,80332
472,113	80,63089
472,324	1,56067
472,534	88,95365
472,745	86,87297
472,955	-33,81521
473,166	-10,92477
473,376	-21,32944
473,587	43,17748
473,797	-23,41039
474,007	-4,68203
474,218	30,69265
474,428	51,5006
474,638	16,12678
474,849	-4,68203
475,059	68,1466
475,269	5,72244
475,48	-21,32944
475,69	3,64156
475,9	22,36933
476,11	116,00208
476,321	26,531
476,531	93,115
476,741	105,59894
476,951	105,59894
477,161	74,38877
477,371	86,87297
477,581	-13,00569
477,792	80,63089
478,002	55,66213
478,212	103,51829
478,422	68,1466
478,632	39,01589
478,842	26,531
479,052	30,69265
479,262	101,43765
479,472	53,58137
479,682	30,69265
479,892	41,09669
480,102	14,04592
480,312	24,45016
480,522	47,33905
480,731	51,5006
480,941	99,35699
481,151	101,43765
481,361	132,64685
481,571	43,17748
481,781	70,22733
481,991	28,61182
482,2	53,58137
482,41	-17,16755
482,62	-4,68203
482,83	88,95365
483,039	43,17748
483,249	22,36933
483,459	91,03433
483,668	51,5006
483,878	18,20764
484,088	41,09669
484,297	47,33905
484,507	53,58137
484,716	-4,68203
484,926	24,45016
485,136	57,74289
485,345	109,76021
485,555	47,33905
485,764	51,5006
485,974	36,93509
486,183	11,96506
486,393	91,03433
486,602	59,82364
486,812	74,38877
487,021	43,17748
487,23	63,98513
487,44	28,61182
487,649	-21,32944
487,859	20,28848
488,068	-8,84385
488,277	63,98513
488,487	126,4051
488,696	39,01589
488,905	59,82364
489,115	41,09669
489,324	18,20764
489,533	41,09669
489,742	18,20764
489,951	91,03433
490,161	116,00208
490,37	45,25827
490,579	-58,78731
490,788	70,22733
490,997	86,87297
491,206	124,32451
491,415	84,79228
491,625	95,19567
491,834	34,85428
492,043	51,5006
492,252	74,38877
492,461	78,55019
492,67	51,5006
492,879	86,87297
493,088	32,77347
493,297	107,67958
493,506	76,46948
493,715	45,25827
493,924	101,43765
494,132	-4,68203
494,341	45,25827
494,55	28,61182
494,759	63,98513
494,968	57,74289
495,177	122,24391
495,386	76,46948
495,594	14,04592
495,803	5,72244
496,012	74,38877
496,221	14,04592
496,429	36,93509
496,638	97,27633
496,847	68,1466
497,055	74,38877
497,264	-10,92477
497,473	68,1466
497,681	68,1466
497,89	78,55019
498,099	99,35699
498,307	59,82364
498,516	53,58137
498,724	74,38877
498,933	-10,92477
499,141	24,45016
499,35	61,90439
499,558	59,82364
499,767	78,55019
499,975	43,17748
500,184	32,77347
500,392	97,27633
500,601	28,61182
500,809	55,66213
501,018	36,93509
501,226	-25,49134
501,434	84,79228
501,643	93,115
501,851	39,01589
502,059	88,95365
502,268	70,22733
502,476	61,90439
502,684	61,90439
502,892	88,95365
503,101	72,30805
503,309	22,36933
503,517	43,17748
503,725	118,08269
503,933	51,5006
504,141	18,20764
504,35	43,17748
504,558	57,74289
504,766	120,1633
504,974	70,22733
505,182	74,38877
505,39	32,77347
505,598	86,87297
505,806	68,1466
506,014	1,56067
506,222	66,06587
506,43	-100,40912
506,638	68,1466
506,846	107,67958
507,054	28,61182
507,262	20,28848
507,47	70,22733
507,678	-13,00569
507,886	111,84084
508,094	118,08269
508,301	184,65975
508,509	18,20764
508,717	138,88856
508,925	55,66213
509,133	11,96506
509,34	107,67958
509,548	157,61342
509,756	22,36933
509,964	34,85428
510,171	88,95365
510,379	70,22733
510,587	70,22733
510,794	68,1466
511,002	3,64156
511,21	39,01589
511,417	-19,24849
511,625	34,85428
511,832	140,96912
512,04	-15,08662
512,247	-2,60112
512,455	155,5329
512,663	74,38877
512,87	91,03433
513,078	32,77347
513,285	26,531
513,492	68,1466
513,7	57,74289
513,907	66,06587
514,115	-0,52022
514,322	3,64156
514,529	45,25827
514,737	-0,52022
514,944	20,28848
515,152	-8,84385
515,359	26,531
515,566	155,5329
515,773	11,96506
515,981	18,20764
516,188	-8,84385
516,395	49,41983
516,602	76,46948
516,81	109,76021
517,017	74,38877
517,224	-13,00569
517,431	32,77347
517,638	66,06587
517,845	78,55019
518,053	28,61182
518,26	72,30805
518,467	78,55019
518,674	53,58137
518,881	18,20764
519,088	59,82364
519,295	-2,60112
519,502	72,30805
519,709	26,531
519,916	61,90439
520,123	-21,32944
520,33	-6,76293
520,537	5,72244
520,744	107,67958
520,95	76,46948
521,157	39,01589
521,364	111,84084
521,571	55,66213
521,778	74,38877
521,985	120,1633
522,191	39,01589
522,398	130,56627
522,605	51,5006
522,812	82,71159
523,019	47,33905
523,225	122,24391
523,432	134,72743
523,639	66,06587
523,845	111,84084
524,052	68,1466
524,259	63,98513
524,465	20,28848
524,672	28,61182
524,878	-44,22016
525,085	70,22733
525,292	18,20764
525,498	105,59894
525,705	113,92146
525,911	34,85428
526,118	101,43765
526,324	107,67958
526,531	22,36933
526,737	63,98513
526,944	91,03433
527,15	41,09669
527,356	107,67958
527,563	55,66213
527,769	26,531
527,975	53,58137
528,182	91,03433
528,388	78,55019
528,594	113,92146
528,801	132,64685
529,007	22,36933
529,213	32,77347
529,42	39,01589
529,626	122,24391
529,832	57,74289
530,038	113,92146
530,244	11,96506
530,451	80,63089
530,657	76,46948
530,863	82,71159
531,069	1,56067
531,275	101,43765
531,481	-19,24849
531,687	-0,52022
531,893	66,06587
532,099	-17,16755
532,305	-13,00569
532,511	9,88419
532,717	116,00208
532,923	-0,52022
533,129	28,61182
533,335	97,27633
533,541	103,51829
533,747	16,12678
533,953	-33,81521
534,159	88,95365
534,365	30,69265
534,571	97,27633
534,777	86,87297
534,982	82,71159
535,188	51,5006
535,394	43,17748
535,6	1,56067
535,806	105,59894
536,011	74,38877
536,217	128,48569
536,423	111,84084
536,628	66,06587
536,834	76,46948
537,04	103,51829
537,245	88,95365
537,451	101,43765
537,657	57,74289
537,862	49,41983
538,068	76,46948
538,273	118,08269
538,479	165,93546
538,685	86,87297
538,89	82,71159
539,096	82,71159
539,301	61,90439
539,507	74,38877
539,712	101,43765
539,917	149,29131
540,123	70,22733
540,328	34,85428
540,534	103,51829
540,739	82,71159
540,944	45,25827
541,15	55,66213
541,355	41,09669
541,56	5,72244
541,766	41,09669
541,971	63,98513
542,176	109,76021
542,382	32,77347
542,587	105,59894
542,792	3,64156
542,997	22,36933
543,202	74,38877
543,408	70,22733
543,613	80,63089
543,818	80,63089
544,023	138,88856
544,228	78,55019
544,433	76,46948
544,638	151,37185
544,843	80,63089
545,049	18,20764
545,254	9,88419
545,459	107,67958
545,664	103,51829
545,869	105,59894
546,074	61,90439
546,279	82,71159
546,483	49,41983
546,688	18,20764
546,893	97,27633
547,098	138,88856
547,303	16,12678
547,508	66,06587
547,713	41,09669
547,918	14,04592
548,122	88,95365
548,327	99,35699
548,532	103,51829
548,737	78,55019
548,942	84,79228
549,146	59,82364
549,351	36,93509
549,556	63,98513
549,76	88,95365
549,965	74,38877
550,17	140,96912
550,374	26,531
550,579	43,17748
550,784	76,46948
550,988	32,77347
551,193	41,09669
551,397	49,41983
551,602	82,71159
551,806	53,58137
552,011	16,12678
552,215	91,03433
552,42	32,77347
552,624	149,29131
552,829	55,66213
553,033	95,19567
553,238	28,61182
553,442	128,48569
553,646	49,41983
553,851	55,66213
554,055	109,76021
554,26	34,85428
554,464	93,115
554,668	99,35699
554,872	93,115
555,077	120,1633
555,281	95,19567
555,485	111,84084
555,69	153,45238
555,894	203,38365
556,098	188,82065
556,302	151,37185
556,506	197,1424
556,71	197,1424
556,915	126,4051
557,119	247,07124
557,323	240,83029
557,527	192,98153
557,731	301,15773
557,935	361,48121
558,139	259,55302
558,343	336,52025
558,547	307,39827
558,751	386,44151
558,955	392,68148
559,159	344,84064
559,363	380,2015
559,567	315,71893
559,771	392,68148
559,975	357,3211
560,179	388,52151
560,382	463,39827
560,586	336,52025
560,79	382,28151
560,994	519,55199
561,198	438,44001
561,402	463,39827
561,605	388,52151
561,809	448,83936
562,013	413,48109
562,217	459,23861
562,42	567,38407
562,624	455,07892
562,828	482,11654
563,031	542,42849
563,235	556,98599
563,439	523,71139
563,642	600,65717
563,846	486,27611
564,049	452,99907
564,253	532,03015
564,456	631,84969
564,66	581,94119
564,863	567,38407
565,067	559,06561
565,27	540,34883
565,474	602,73671
565,677	619,3728
565,881	665,12063
566,084	544,50815
566,288	532,03015
566,491	621,45229
566,694	592,339
566,898	652,64416
567,101	687,99376
567,304	694,23179
567,508	671,35881
567,711	656,803
567,914	679,67632
568,118	679,67632
568,321	617,29331
568,524	725,42139
568,727	760,76843
568,93	742,05544
569,134	783,6394
569,337	752,45159
569,54	702,54911
569,743	754,53081
569,946	789,87684
570,149	723,34211
570,352	762,84763
570,555	796,11425
570,758	767,00602
570,962	864,72326
571,165	873,0392
571,368	825,22166
571,571	829,37979
571,774	922,93342
571,976	927,09116
572,179	831,45885
572,382	910,46008
572,585	904,22336
572,788	877,19714
572,991	958,27373
573,194	952,03729
573,397	954,1161
573,6	1004,00649
573,802	987,37662
574,005	1097,54472
574,208	1008,16392
574,411	1008,16392
574,613	1107,93736
574,816	1161,97748
575,019	1188,99655
575,222	1193,15327
575,424	1080,9163
575,627	1213,93663
575,83	1211,85831
576,032	1164,05589
576,235	1228,48476
576,438	1255,5022
576,64	1139,11468
576,843	1257,58044
577,045	1301,22255
577,248	1307,45699
577,45	1438,37249
577,653	1359,40939
577,855	1442,52829
578,058	1407,2035
578,26	1542,26306
578,463	1454,99561
578,665	1581,73905
578,868	1531,87443
579,07	1575,50609
579,272	1631,60156
579,475	1608,74817
579,677	1654,45451
579,879	1837,26232
580,082	1735,47505
580,284	1675,22953
580,486	1943,1951
580,689	1936,96401
580,891	2103,1155
581,093	2034,58072
581,295	2038,73445
581,498	2138,41983
581,7	2173,72315
581,902	2190,33613
582,104	2300,39159
582,306	2352,30121
582,508	2514,24558
582,71	2657,48695
582,913	2528,77805
583,115	2765,4264
583,317	2759,19937
583,519	2877,5078
583,721	3022,78403
583,923	3116,16727
584,125	3317,43707
584,327	3145,21846
584,529	3352,70792
584,731	3466,81288
584,933	3647,28542
585,135	3780,03052
585,336	3914,8355
585,538	4159,52131
585,74	4157,4479
585,942	4489,14817
586,144	4555,47732
586,346	4750,29781
586,547	4843,55152
586,749	5100,47835
586,951	5245,49203
587,153	5469,19029
587,355	5475,40348
587,556	5806,7214
587,758	5926,79845
587,96	6181,3981
588,161	6388,34208
588,363	6802,09765
588,565	6909,64438
588,766	7246,67999
588,968	7509,18985
589,17	7653,84633
589,371	7938,9538
589,573	8467,5861
589,774	8612,07275
589,976	9142,31154
590,177	9325,84745
590,379	9554,68709
590,58	10012,1464
590,782	10413,72111
590,983	10633,97188
591,185	11251,10972
591,386	11464,91543
591,587	12329,69131
591,789	12376,90174
591,99	13094,88458
592,192	13230,1836
592,393	14225,57838
592,594	14413,83003
592,796	14998,69215
592,997	15446,18311
593,198	16244,37772
593,399	16470,80486
593,601	17200,59173
593,802	17642,59799
594,003	18503,49691
594,204	18975,30026
594,405	19396,06134
594,607	20056,32765
594,808	21219,54863
595,009	21489,41403
595,21	22110,1612
595,411	22824,03078
595,612	23906,79878
595,813	24476,56244
596,014	25011,90558
596,215	25752,20943
596,416	26470,45772
596,617	27292,60946
596,818	28119,4106
597,019	28660,15983
597,22	29286,724
597,421	30710,69783
597,622	31210,54201
597,823	31576,0005
598,024	32272,86584
598,225	33193,88425
598,426	34046,8302
598,627	34897,21049
598,827	35477,37207
599,028	35992,34233
599,229	37398,30092
599,43	36778,35241
599,63	37934,28017
599,831	38591,26008
600,032	39403,11274
600,233	39692,13371
600,433	40450,0273
600,634	40956,82804
600,835	41673,36099
601,035	42106,46242
601,236	42982,61596
601,437	42747,64718
601,637	43808,34524
601,838	43964,04547
602,038	44906,07812
602,239	44515,87932
602,439	45393,94751
602,64	45501,75759
602,841	46567,03316
603,041	46564,91168
603,241	46369,79851
603,442	46968,26159
603,642	46932,15022
603,843	47429,60317
604,043	47491,31272
604,244	47814,97495
604,444	48115,54906
604,644	48589,46605
604,845	48467,70473
605,045	48331,05648
605,245	48424,99466
605,446	48563,82744
605,646	48822,46478
605,846	48743,35018
606,046	49248,39168
606,247	48367,34688
606,447	48955,08942
606,647	48454,89099
606,847	49023,56765
607,047	48638,61368
607,248	48510,42164
607,448	48589,46605
607,648	48587,3294
607,848	48171,0099
608,048	48790,38839
608,248	47702,07698
608,448	48177,40995
608,648	48149,67748
608,848	47964,15536
609,048	47199,90426
609,248	48083,55753
609,448	46834,45908
609,648	47085,12271
609,848	46354,95803
610,048	46832,33571
610,248	45525,01547
610,448	45920,6589
610,648	45351,67886
610,847	45694,21451
611,047	44094,55137
611,247	44191,41052
611,447	44037,71205
611,647	43780,99975
611,846	42787,49705
612,046	42693,12298
612,246	41907,63239
612,446	41901,35531
612,645	40512,55844
612,845	40337,49727
613,045	39810,71575
613,244	39322,05928
613,444	39463,39425
613,644	38313,41403
613,843	37886,65481
614,043	37557,57215
614,243	37278,37138
614,442	37158,47691
614,642	36553,33371
614,841	36307,80865
615,041	35343,57945
615,24	34798,53461
615,44	34401,99142
615,639	34186,3989
615,839	33404,93097
616,038	32962,45042
616,237	32788,43286
616,437	31839,52067
616,636	31388,13832
616,836	31837,4774
617,035	31090,13356
617,234	30941,1871
617,434	30227,55556
617,633	29750,87417
617,832	29596,12466
618,032	29455,65704
618,231	28953,03799
618,43	28999,82688
618,629	28131,60441
618,828	28229,16057
619,028	27745,54161
619,227	27737,41557
619,426	27262,14979
619,625	26929,17449
619,824	26827,67519
620,023	26634,84771
620,222	26184,33967
620,422	25942,90236
620,621	26113,32525
620,82	25802,92383
621,019	25391,15735
621,218	25376,95981
621,417	24869,95164
621,616	25003,79377
621,815	24334,6251
622,014	24464,39626
622,213	24365,03999
622,411	24180,52473
622,61	23570,21942
622,809	23722,28865
623,008	23835,83333
623,207	23618,88168
623,406	23572,24702
623,605	23395,84502
623,803	22921,36517
624,002	23038,97483
624,201	22548,23689
624,4	22692,22012
624,598	22436,69624
624,797	22345,43262
624,996	22104,0763
625,195	22410,33149
625,393	22077,70824
625,592	21949,92038
625,791	21996,57392
625,989	21665,92036
626,188	21172,87574
626,386	21323,03592
626,585	20988,19986
626,784	21160,69999
626,982	20870,48255
627,181	20760,87505
627,379	20498,9995
627,578	20884,69032
627,776	20271,59182
627,975	20716,21769
628,173	20405,60489
628,371	20484,78772
628,57	19995,39665
628,768	20192,39538
628,967	19843,05479
629,165	20064,45154
629,363	20019,76944
629,562	19830,86655
629,76	19641,9312
629,958	19511,89164
630,157	19349,31904
630,355	19497,66757
630,553	19550,49883
630,751	19414,35121
630,95	19345,25439
631,148	19223,30711
631,346	19383,86791
631,544	19308,67179
631,742	19491,57148
631,94	19367,60976
632,139	19261,92538
632,337	19615,51823
632,535	19641,9312
632,733	19513,92363
632,931	19745,54501
633,129	19721,16619
633,327	20145,68734
633,525	20174,11854
633,723	20326,4171
633,921	20328,44762
634,119	20624,86855
634,317	21294,62828
634,515	21016,61298
634,713	21349,414
634,91	21743,00997
635,108	21923,55056
635,306	22002,65909
635,504	22866,61485
635,702	22972,05933
635,9	23452,61836
636,097	23991,95752
636,295	24283,93389
636,493	24440,06397
636,691	25421,58092
636,888	25389,12913
637,086	26304,05656
637,284	26344,64057
637,482	27471,3226
637,679	27654,12739
637,877	28141,76604
638,075	28810,65367
638,272	29421,05319
638,47	29820,11512
638,667	30547,57111
638,865	31200,33695
639,062	31286,06489
639,26	32954,26003
639,457	33339,3534
639,655	33439,77263
639,852	34646,45142
640,05	34915,71463
640,247	35664,75047
640,445	36225,31122
640,642	37067,54579
640,84	37013,82318
641,037	37903,21951
641,234	38782,13308
641,432	39704,61431
641,629	39139,23148
641,826	40756,52888
642,024	40412,51358
642,221	41723,54942
642,418	41598,09119
642,615	42607,15938
642,813	42858,81844
643,01	43846,21179
643,207	43753,65642
643,404	44878,6438
643,602	44851,21174
643,799	45417,19761
643,996	45613,83381
644,193	46622,19688
644,39	46709,20627
644,587	48034,5111
644,784	47889,55516
644,981	48711,28353
645,178	48365,21201
645,375	49344,80649
645,572	49499,14828
645,769	50750,45016
645,966	50616,82248
646,163	51270,6624
646,36	51636,23484
646,557	52043,6958
646,754	52406,3697
646,951	52856,90697
647,148	53328,26841
647,345	54051,00674
647,542	54345,4364
647,738	55090,73482
647,935	55185,83426
648,132	55717,86601
648,329	55702,31776
648,526	56766,32426
648,722	56205,27488
648,919	57213,09766
649,116	57935,43247
649,312	58416,82192
649,509	58409,99319
649,706	58788,59219
649,902	58425,92764
650,099	59433,07141
650,296	59019,70375
650,492	59412,35664
650,689	59806,79953
650,885	60080,07838
651,082	60172,92368
651,278	60242,62814
651,475	59640,49452
651,671	60179,8914
651,868	60219,38657
652,064	60233,3307
652,261	60226,35833
652,457	60296,1095
652,654	59295,06625
652,85	59483,72845
653,047	59739,77589
653,243	59341,04365
653,439	59509,06816
653,636	59290,46983
653,832	58110,00479
654,028	58514,75401
654,224	57465,35082
654,421	58055,55986
654,617	56582,73833
654,813	57490,15783
655,009	55964,67108
655,206	56058,18345
655,402	55416,11872
655,598	55675,668
655,794	54055,39704
655,99	54391,63053
656,186	53433,19389
656,383	53551,31483
656,579	52234,71816
656,775	52445,50243
656,971	51614,58495
657,167	51915,7308
657,363	50160,50531
657,559	50083,1081
657,755	49531,31502
657,951	49291,2381
658,147	48739,0744
658,343	48407,91254
658,539	47512,59496
658,735	47900,21111
658,93	46149,38484
659,126	46868,43498
659,322	45495,41482
659,518	44752,05322
659,714	44602,31651
659,91	43974,5683
660,105	43907,22777
660,301	43616,97216
660,497	42068,78104
660,693	42194,40085
660,888	41618,99793
661,084	41292,98755
661,28	40047,98982
661,476	40229,16655
661,671	39006,31962
661,867	39590,22394
662,062	38037,83303
662,258	38645,19309
662,454	37522,40302
662,649	36439,83797
662,845	35986,15904
663,04	35780,10039
663,236	35057,60501
663,431	34685,49495
663,627	33515,61304
663,822	33548,41255
664,018	33032,07417
664,213	32651,30774
664,409	31784,35504
664,604	31937,60646
664,799	30769,84174
664,995	30476,21636
665,19	29911,76809
665,386	29809,9322
665,581	28619,49043
665,776	28672,36103
665,972	27656,15873
666,167	27522,0986
666,362	26886,54382
666,557	26705,88626
666,753	25733,95256
666,948	25328,28314
667,143	24912,53722
667,338	24811,14377
667,533	23900,71603
667,728	23854,08158
667,924	22925,42072
668,119	23191,05248
668,314	22852,42021
668,509	22398,16306
668,704	22000,6307
668,899	21629,40317
669,094	20878,60129
669,289	21016,61298
669,484	20273,62243
669,679	20220,82547
669,874	19763,82876
670,069	19538,30724
670,264	18965,13466
670,459	18723,16029
670,654	18570,62209
670,849	18340,7476
671,043	17540,77588
671,238	17876,73867
671,433	17583,5428
671,628	17223,00379
671,823	16825,59799
672,018	16560,53944
672,212	16405,53613
672,407	16128,0755
672,602	15687,17059
672,797	15748,42466
672,991	15395,11516
673,186	15325,65636
673,381	15027,3081
673,575	14986,42779
673,77	14538,61828
673,965	14571,34557
674,159	14368,81842
674,354	14035,22352
674,548	13945,14312
674,743	13801,8068
674,937	13547,81641
675,132	13537,5727
675,326	13283,47518
675,521	13008,76999
675,715	12645,72852
675,91	12580,0715
676,104	12259,89553
676,299	12395,37442
676,493	11990,90458
676,687	12091,53286
676,882	11832,7423
677,076	11795,76365
677,271	11514,24519
677,465	11477,24822
677,659	11362,13301
677,853	11405,30361
678,048	11259,33432
678,242	11066,02896
678,436	10948,78416
678,63	10767,73384
678,825	10578,40137
679,019	10477,53947
679,213	10364,30923
679,407	10485,77366
679,601	10168,68546
679,795	10304,59843
679,99	9970,94604
680,184	9987,42648
680,378	9958,58546
680,572	9556,74837
680,766	9661,86622
680,96	9433,06061
681,154	9729,87539
681,348	9525,82842
681,542	9121,68667
681,736	9311,41371
681,93	9125,81169
682,124	9299,0417
682,317	9111,37402
682,511	8834,94203
682,705	8995,86259
682,899	8882,39653
683,093	9026,8049
683,287	8816,37207
683,481	8471,71466
683,674	8733,83344
683,868	8541,89686
684,062	8453,13597
684,256	8335,46073
684,449	8719,38826
684,643	8323,07284
684,837	8300,36122
685,03	8360,23592
685,224	7982,33116
685,418	8141,36181
685,611	8343,71921
685,805	8077,34021
685,999	7994,72427
686,192	7996,78977
686,386	8005,05172
686,579	8027,77165
686,773	7887,31111
686,966	7709,63584
687,16	7879,04799
687,353	7812,94001
687,547	7870,78478
687,74	7552,58935
687,934	7608,3855
688,127	7490,58939
688,32	7643,51453
688,514	7705,50341
688,707	7707,56963
688,9	7469,92174
689,094	7610,45195
689,287	7492,65612
689,48	7511,25654
689,674	7515,38991
689,867	7670,37693
690,06	7434,78562
690,253	7606,31904
690,447	7546,38956
690,64	7610,45195
690,833	7290,09255
691,026	7486,4559
691,219	7457,52092
691,412	7529,85655
691,605	7554,65594
691,799	7525,72325
691,992	7376,91126
692,185	7486,4559
692,378	7438,91935
692,571	7554,65594
692,764	7329,36874
692,957	7560,85568
693,15	7372,77723
693,343	7616,65128
693,536	7505,05644
693,729	7538,12309
693,921	7691,03974
694,114	7525,72325
694,307	7515,38991
694,5	7521,58993
694,693	7471,98853
694,886	7672,44324
695,079	7465,78815
695,271	7767,48774
695,464	7600,11963
695,657	7843,92878
695,85	7709,63584
696,042	7527,7899
696,235	7467,85495
696,428	7610,45195
696,62	7848,06052
696,813	7691,03974
697,006	7744,76068
697,198	8040,16407
697,391	7769,5538
697,584	7978,20008
697,776	7742,69455
697,969	7827,40158
698,161	7992,65876
698,354	8021,57536
698,546	7887,31111
698,739	8128,97093
698,931	8095,92765
699,124	8124,84059
699,316	7936,88815
699,509	8097,99289
699,701	8040,16407
699,893	8069,07899
700,086	8174,40324
700,278	8118,64505
700,47	8087,66662
700,663	8488,22869
700,855	8201,2484
701,047	8372,62322
701,24	8370,55868
701,432	8457,2646
701,624	8327,20216
701,816	8267,32498
702,008	8479,97172
702,201	8546,02503
702,393	8713,19739
702,585	8457,2646
702,777	8415,97726
702,969	8682,24228
703,161	8595,56135
703,353	8713,19739
703,546	8519,19155
703,738	8539,83277
703,93	8717,32464
704,122	8768,91345
704,314	8700,81549
704,506	8723,51548
704,698	8725,57909
704,89	8801,92845
705,082	8678,11483
705,273	8781,29424
705,465	8568,72957
705,657	8777,16733
705,849	8451,07164
706,041	8764,78647
706,233	8812,24535
706,425	8839,06862
706,616	8744,15125
706,808	8911,28042
707	8622,3922
707,192	8725,57909
707,383	8630,64766
707,575	8711,13375
707,767	8737,96058
707,959	8820,49876
708,15	8707,00647
708,342	8758,59596
708,534	8921,59583
708,725	8622,3922
708,917	8766,84996
709,108	8758,59596
709,3	8872,08058
709,491	8861,7645
709,683	8808,11861
709,875	8843,1952
710,066	8504,74236
710,258	8845,25848
710,449	8704,94281
710,64	8702,87916
710,832	8781,29424
711,023	8942,22622
711,215	8618,26443
711,406	8651,28592
711,597	8752,40541
711,789	8531,57635
711,98	8673,98737
712,171	8851,44828
712,363	8847,32175
712,554	8616,20055
712,745	8626,51994
712,937	8692,56079
713,128	8496,48557
713,319	8597,62529
713,51	8486,16445
713,701	8500,61398
713,893	8546,02503
714,084	8451,07164
714,275	8440,74993
714,466	8607,94493
714,657	8316,87883
714,848	8182,66338
715,039	8172,33819
715,23	8432,49246
715,421	8279,71373
715,612	8432,49246
715,803	8157,88269
715,994	8203,31337
716,185	8151,6874
716,376	7918,29711
716,567	7949,28195
716,758	7918,29711
716,949	7759,22342
717,14	7845,99465
717,331	7914,16571
717,522	7798,47819
717,712	7753,02514
717,903	7715,83445
718,094	7622,85057
718,285	7614,58484
718,476	7378,97826
718,666	7641,44816
718,857	7453,38727
719,048	7399,64807
719,238	7292,15976
719,429	7372,77723
719,62	7279,75642
719,81	6996,49989
720,001	7027,51771
720,192	7068,87317
720,382	6818,64411
720,573	6826,91723
720,763	6804,16597
720,954	6986,16038
721,144	6849,66793
721,335	6955,14115
721,525	6649,02903
721,716	6564,21008
721,906	6622,13603
722,097	6562,14123
722,287	6543,52139
722,478	6622,13603
722,668	6464,90031
722,858	6435,93304
723,049	6260,0419
723,239	6086,18944
723,429	6096,53864
723,62	6046,86151
723,81	6168,98009
724	6030,30192
724,191	5885,39414
724,381	6086,18944
724,571	5663,85319
724,761	5827,42533
724,951	5701,12502
725,142	5786,01707
725,332	5682,48927
725,522	5649,35823
725,712	5508,53988
725,902	5473,33242
726,092	5359,41812
726,282	5332,4912
726,472	5274,49251
726,662	5104,62186
726,852	5007,24544
727,042	5030,03641
727,232	4994,8138
727,422	5044,53952
727,612	5054,89877
727,802	4949,23
727,992	4864,27355
728,182	4822,82912
728,372	4511,94923
728,562	4673,61698
728,752	4800,03405
728,942	4623,8754
729,131	4553,40459
729,321	4381,35551
729,511	4404,1586
729,701	4381,35551
729,89	4346,11351
730,08	4335,74803
730,27	4209,282
730,46	4045,47882
730,649	4043,40523
730,839	4049,62601
731,029	3875,43246
731,218	3848,47178
731,408	3800,77069
731,597	3740,62327
731,787	3612,02268
731,977	3856,76743
732,166	3560,16393
732,356	3553,94074
732,545	3576,75896
732,735	3470,96196
732,924	3331,96048
733,114	3408,72435
733,303	3234,44302
733,492	3375,52972
733,682	3143,1434
733,871	3215,76862
734,061	3124,46768
734,25	3327,81095
734,439	3136,91819
734,629	3095,41603
734,818	2958,44943
735,007	3020,70877
735,197	3051,83732
735,386	2844,29952
735,575	2790,33422
735,764	2975,05222
735,954	2819,39274
736,143	2759,19937
736,332	2800,71234
736,521	2690,70005
736,71	2618,04527
736,899	2680,32105
737,088	2609,7416
737,278	2684,47266
737,467	2520,4738
737,656	2572,37444
737,845	2607,66568
738,034	2414,58995
738,223	2431,19976
738,412	2501,78905
738,601	2312,8501
738,79	2337,76673
738,979	2354,37755
739,168	2341,91946
739,356	2327,38486
739,545	2397,97992
739,734	2148,80326
739,923	2190,33613
740,112	2325,30848
740,301	2211,10205
740,489	2092,73169
740,678	2130,11302
740,867	2067,81018
741,056	2121,80615
741,245	1953,58017
741,433	2051,19556
741,622	1986,81181
741,811	1880,88282
741,999	1787,4084
742,188	1961,88817
742,377	1984,73486
742,565	1928,65585
742,754	1787,4084
742,942	1812,33562
743,131	1833,10791
743,319	1864,26567
743,508	1766,63533
743,697	1737,55242
743,885	1791,56298
744,073	1689,77183
744,262	1691,84929
744,45	1681,46197
744,639	1683,53944
744,827	1714,70107
745,016	1696,00419
745,204	1656,53202
745,392	1608,74817
745,581	1627,44643
745,769	1533,95216
745,957	1650,29946
746,146	1571,35076
746,334	1635,75667
746,522	1540,18534
746,71	1494,47456
746,899	1486,16331
747,087	1346,94103
747,275	1473,69633
747,463	1492,39675
747,651	1423,82707
747,84	1482,00767
748,028	1471,61849
748,216	1488,24113
748,404	1365,64352
748,592	1346,94103
748,78	1355,25329
748,968	1346,94103
749,156	1359,40939
749,344	1438,37249
749,532	1363,56548
749,72	1305,37885
749,908	1338,62872
750,096	1319,92579
750,284	1247,18921
750,472	1309,53514
750,66	1247,18921
750,847	1263,81513
751,035	1245,11096
751,223	1259,65868
751,411	1307,45699
751,599	1201,46666
751,787	1168,21271
751,974	1220,17157
752,162	1141,19313
752,35	1218,09326
752,537	1112,09439
752,725	1087,15199
752,913	1203,545
753,101	1060,1304
753,288	1191,07491
753,476	1211,85831
753,663	1062,20901
753,851	1149,50692
754,039	1153,66379
754,226	1039,34411
754,414	1120,40839
754,601	1141,19313
754,789	1031,02948
754,976	1045,58004
755,164	1026,87214
755,351	1074,68057
755,539	1118,3299
755,726	1060,1304
755,913	1070,5234
756,101	1016,47873
756,288	1089,23054
756,476	1012,32133
756,663	1128,72234
756,85	949,95846
757,037	1026,87214
757,225	952,03729
757,412	966,58892
757,599	962,43133
757,787	1093,38764
757,974	1095,46618
758,161	970,74649
758,348	947,87964
758,535	1008,16392
758,722	1041,42276
758,91	987,37662
759,097	995,69159
759,284	914,61788
759,471	952,03729
759,658	918,77566
759,845	895,90767
760,032	925,01229
760,219	947,87964
760,406	925,01229
760,593	887,59192
760,78	933,32775
760,967	927,09116
761,154	877,19714
761,341	902,14445
761,528	929,17003
761,715	952,03729
761,901	821,06351
762,088	866,80225
762,275	870,96022
762,462	841,8541
762,649	875,11817
762,835	908,38118
763,022	873,0392
763,209	816,90534
763,396	952,03729
763,582	885,51297
763,769	818,98443
763,956	848,09119
764,142	798,19338
764,329	908,38118
764,516	800,2725
764,702	875,11817
764,889	868,88124
765,075	906,30227
765,262	860,56527
765,448	773,24357
765,635	810,66806
765,821	821,06351
766,008	860,56527
766,194	800,2725
766,381	769,0852
766,567	791,95598
766,754	887,59192
766,94	742,05544
767,127	860,56527
767,313	887,59192
767,499	789,87684
767,686	841,8541
767,872	831,45885
768,058	717,10425
768,244	650,56473
768,431	756,61002
768,617	744,13468
768,803	744,13468
768,989	814,82625
769,176	727,50066
769,362	789,87684
769,548	742,05544
769,734	767,00602
769,92	785,71855
770,106	767,00602
770,292	764,92683
770,478	777,40191
770,664	806,50985
770,851	658,88241
771,037	839,77506
771,223	756,61002
771,409	679,67632
771,594	652,64416
771,78	806,50985
771,966	823,14259
772,152	827,30073
772,338	729,57993
772,524	787,7977
772,71	773,24357
772,896	748,29314
773,082	729,57993
773,267	762,84763
773,453	767,00602
773,639	752,45159
773,825	665,12063
774,011	683,83504
774,196	721,26283
774,382	710,86636
774,568	638,08808
774,753	719,18354
774,939	719,18354
775,125	791,95598
775,31	721,26283
775,496	608,97527
775,681	708,78705
775,867	737,89695
776,053	756,61002
776,238	671,35881
776,424	706,70774
776,609	698,39046
776,795	708,78705
776,98	565,30446
777,166	737,89695
777,351	698,39046
777,536	710,86636
777,722	660,96182
777,907	648,4853
778,093	621,45229
778,278	652,64416
778,463	708,78705
778,649	575,70245
778,834	727,50066
779,019	638,08808
779,204	700,46979
779,39	586,10033
779,575	631,84969
779,76	687,99376
779,945	712,94566
780,13	644,32642
780,316	667,20003
780,501	640,16753
780,686	654,72358
780,871	584,02076
781,056	712,94566
781,241	673,43819
781,426	677,59694
781,611	700,46979
781,796	619,3728
781,981	654,72358
782,166	602,73671
782,351	596,4981
782,536	619,3728
782,721	642,24698
782,906	621,45229
783,091	567,38407
783,276	579,86161
783,461	571,54327
783,646	648,4853
783,83	650,56473
784,015	569,46367
784,2	600,65717
784,385	608,97527
784,57	665,12063
784,754	561,14523
784,939	538,26917
785,124	598,57764
785,308	665,12063
785,493	573,62286
785,678	600,65717
785,862	534,10983
786,047	477,95696
786,232	631,84969
786,416	477,95696
786,601	586,10033
786,785	540,34883
786,97	538,26917
787,154	515,39257
787,339	525,79109
787,523	538,26917
787,708	536,1895
787,892	542,42849
788,077	552,82673
788,261	586,10033
788,446	504,99393
788,63	575,70245
788,814	590,25945
788,999	542,42849
789,183	538,26917
789,367	425,96063
789,552	556,98599
789,736	644,32642
789,92	419,72088
790,104	475,87716
790,289	486,27611
790,473	482,11654
790,657	480,03675
790,841	480,03675
791,025	502,91419
791,21	509,1534
791,394	494,59519
791,578	554,90636
791,762	425,96063
791,946	504,99393
792,13	403,08134
792,314	521,63169
792,498	409,3212
792,682	398,92141
792,866	425,96063
793,05	384,36151
793,234	467,55792
793,418	394,76146
793,602	569,46367
793,786	403,08134
793,97	448,83936
794,153	411,40115
794,337	421,8008
794,521	459,23861
794,705	442,59976
794,889	411,40115
795,073	384,36151
795,256	376,04147
795,44	461,31844
795,624	353,16097
795,807	405,1613
795,991	494,59519
796,175	502,91419
796,358	434,28023
796,542	317,79908
796,726	425,96063
796,909	359,40116
797,093	480,03675
797,277	411,40115
797,46	315,71893
797,644	365,64131
797,827	373,96145
798,011	309,47844
798,194	488,35588
798,378	419,72088
798,561	319,87923
798,744	365,64131
798,928	419,72088
799,111	355,24103
799,295	396,84144
799,478	371,88142
799,661	357,3211
799,845	475,87716
800,028	430,12044
800,211	455,07892
800,395	384,36151
800,578	390,6015
800,761	357,3211
800,944	371,88142
801,127	334,44014
801,311	290,75673
801,494	344,84064
801,677	398,92141
801,86	401,00138
802,043	411,40115
802,226	315,71893
802,409	326,11965
802,593	382,28151
802,776	215,86604
802,959	371,88142
803,142	394,76146
803,325	265,79385
803,508	378,12149
803,691	324,03951
803,874	326,11965
804,056	321,95937
804,239	315,71893
804,422	321,95937
804,605	324,03951
804,788	307,39827
804,971	309,47844
805,154	311,55861
805,336	296,99734
805,519	278,27537
805,702	319,87923
805,885	394,76146
806,068	338,60035
806,25	321,95937
806,433	280,35561
806,616	342,76055
806,798	330,2799
806,981	326,11965
807,164	392,68148
807,346	313,63877
807,529	311,55861
807,711	276,19513
807,894	303,23791
808,076	328,19978
808,259	222,10716
808,442	234,58929
808,624	282,43584
808,806	305,31809
808,989	334,44014
809,171	284,51607
809,354	190,9011
809,536	340,68045
809,719	280,35561
809,901	269,95438
810,083	319,87923
810,266	236,66963
810,448	244,99093
810,63	217,94642
810,813	213,78565
810,995	259,55302
811,177	247,07124
811,359	288,67651
811,542	265,79385
811,724	288,67651
811,906	319,87923
812,088	272,03463
812,27	234,58929
812,452	249,15155
812,634	267,87411
812,817	255,39245
812,999	230,4286
813,181	186,7402
813,363	315,71893
813,545	211,70526
813,727	376,04147
813,909	217,94642
814,091	126,4051
814,273	145,13023
814,455	263,71358
814,637	207,54447
814,818	236,66963
815	165,93546
815,182	242,91061
815,364	272,03463
815,546	211,70526
815,728	255,39245
815,909	178,41836
816,091	199,22282
816,273	201,30324
816,455	259,55302
816,636	217,94642
816,818	259,55302
817	149,29131
817,182	199,22282
817,363	274,11488
817,545	178,41836
817,726	190,9011
817,908	120,1633
818,09	165,93546
818,271	165,93546
818,453	168,01596
818,634	145,13023
818,816	180,49883
818,997	157,61342
819,179	186,7402
819,36	186,7402
819,542	143,04968
819,723	201,30324
819,905	195,06197
820,086	201,30324
820,267	126,4051
820,449	274,11488
820,63	244,99093
820,811	213,78565
820,993	186,7402
821,174	211,70526
821,355	220,02679
821,536	143,04968
821,718	163,85496
821,899	143,04968
822,08	176,33789
822,261	138,88856
822,442	165,93546
822,624	192,98153
822,805	124,32451
822,986	128,48569
823,167	188,82065
823,348	178,41836
823,529	103,51829
823,71	116,00208
823,891	147,21077
824,072	155,5329
824,253	163,85496
824,434	151,37185
824,615	182,57929
824,796	159,69394
824,977	59,82364
825,158	155,5329
825,339	128,48569
825,52	132,64685
825,7	161,77445
825,881	157,61342
826,062	72,30805
826,243	180,49883
826,424	178,41836
826,604	130,56627
826,785	199,22282
826,966	126,4051
827,147	93,115
827,327	59,82364
827,508	180,49883
827,689	91,03433
827,869	170,09645
828,05	211,70526
828,231	149,29131
828,411	168,01596
828,592	99,35699
828,772	101,43765
828,953	97,27633
829,133	140,96912
829,314	224,18753
829,494	95,19567
829,675	170,09645
829,855	109,76021
830,036	49,41983
830,216	95,19567
830,396	109,76021
830,577	63,98513
830,757	174,25742
830,938	82,71159
831,118	26,531
831,298	145,13023
831,479	59,82364
831,659	95,19567
831,839	165,93546
832,019	3,64156
832,199	80,63089
832,38	165,93546
832,56	68,1466
832,74	153,45238
832,92	126,4051
833,1	72,30805
833,28	70,22733
833,461	136,808
833,641	101,43765
833,821	70,22733
834,001	93,115
834,181	147,21077
834,361	138,88856
834,541	149,29131
834,721	109,76021
834,901	153,45238
835,081	126,4051
835,261	217,94642
835,44	211,70526
835,62	66,06587
835,8	151,37185
835,98	116,00208
836,16	3,64156
836,34	88,95365
836,52	99,35699
836,699	120,1633
836,879	145,13023
837,059	118,08269
837,239	30,69265
837,418	99,35699
837,598	93,115
837,778	113,92146
837,957	74,38877
838,137	143,04968
838,317	95,19567
838,496	95,19567
838,676	118,08269
838,855	86,87297
839,035	103,51829
839,214	105,59894
839,394	88,95365
839,573	120,1633
839,753	63,98513
839,932	143,04968
840,112	84,79228
840,291	68,1466
840,471	30,69265
840,65	47,33905
840,829	111,84084
841,009	61,90439
841,188	120,1633
841,367	76,46948
841,547	39,01589
841,726	80,63089
841,905	22,36933
842,085	80,63089
842,264	78,55019
842,443	118,08269
842,622	130,56627
842,801	105,59894
842,981	113,92146
843,16	93,115
843,339	78,55019
843,518	30,69265
843,697	130,56627
843,876	93,115
844,055	66,06587
844,234	59,82364
844,413	93,115
844,592	-23,41039
844,771	82,71159
844,95	-46,30117
845,129	153,45238
845,308	107,67958
845,487	128,48569
845,666	70,22733
845,845	101,43765
846,024	122,24391
846,202	61,90439
846,381	93,115
846,56	14,04592
846,739	78,55019
846,918	101,43765
847,096	59,82364
847,275	70,22733
847,454	30,69265
847,633	43,17748
847,811	57,74289
847,99	99,35699
848,169	126,4051
848,347	39,01589
848,526	70,22733
848,704	45,25827
848,883	74,38877
849,062	190,9011
849,24	39,01589
849,419	147,21077
849,597	-2,60112
849,776	103,51829
849,954	111,84084
850,133	122,24391
850,311	72,30805
850,49	5,72244
850,668	72,30805
850,846	14,04592
851,025	26,531
851,203	55,66213
851,381	59,82364
851,56	88,95365
851,738	151,37185
851,916	99,35699
852,095	72,30805
852,273	49,41983
852,451	1,56067
852,629	41,09669
852,807	74,38877
852,986	51,5006
853,164	36,93509
853,342	82,71159
853,52	57,74289
853,698	86,87297
853,876	3,64156
854,054	113,92146
854,232	45,25827
854,41	103,51829
854,588	47,33905
854,766	88,95365
854,944	18,20764
855,122	97,27633
855,3	93,115
855,478	93,115
855,656	109,76021
855,834	145,13023
856,012	22,36933
856,19	45,25827
856,368	36,93509
856,545	66,06587
856,723	97,27633
856,901	105,59894
857,079	-56,70627
857,256	30,69265
857,434	-13,00569
857,612	97,27633
857,79	18,20764
857,967	32,77347
858,145	72,30805
858,323	80,63089
858,5	97,27633
858,678	70,22733
858,855	57,74289
859,033	88,95365
859,211	76,46948
859,388	80,63089
859,566	59,82364
859,743	82,71159
859,921	101,43765
860,098	99,35699
860,276	-2,60112
860,453	66,06587
860,63	178,41836
860,808	103,51829
860,985	20,28848
861,162	97,27633
861,34	111,84084
861,517	34,85428
861,694	59,82364
861,872	51,5006
862,049	63,98513
862,226	109,76021
862,403	-17,16755
862,581	20,28848
862,758	82,71159
862,935	30,69265
863,112	57,74289
863,289	124,32451
863,467	51,5006
863,644	103,51829
863,821	1,56067
863,998	53,58137
864,175	107,67958
864,352	61,90439
864,529	68,1466
864,706	145,13023
864,883	93,115
865,06	70,22733
865,237	113,92146
865,414	66,06587
865,591	93,115
865,768	49,41983
865,944	134,72743
866,121	55,66213
866,298	86,87297
866,475	3,64156
866,652	28,61182
866,829	32,77347
867,005	68,1466
867,182	30,69265
867,359	84,79228
867,536	43,17748
867,712	20,28848
867,889	49,41983
868,066	59,82364
868,242	49,41983
868,419	24,45016
868,596	76,46948
868,772	82,71159
868,949	124,32451
869,125	45,25827
869,302	28,61182
869,478	49,41983
869,655	124,32451
869,831	-21,32944
870,008	-6,76293
870,184	118,08269
870,361	107,67958
870,537	28,61182
870,714	51,5006
870,89	-0,52022
871,066	61,90439
871,243	-46,30117
871,419	-10,92477
871,595	36,93509
871,772	53,58137
871,948	63,98513
872,124	34,85428
872,3	-2,60112
872,477	22,36933
872,653	72,30805
872,829	155,5329
873,005	57,74289
873,181	68,1466
873,357	63,98513
873,533	168,01596
873,71	22,36933
873,886	11,96506
874,062	-13,00569
874,238	59,82364
874,414	24,45016
874,59	14,04592
874,766	63,98513
874,942	39,01589
875,118	24,45016
875,294	-17,16755
875,47	-2,60112
875,645	97,27633
875,821	47,33905
875,997	99,35699
876,173	53,58137
876,349	47,33905
876,525	76,46948
876,7	80,63089
876,876	7,80332
877,052	68,1466
877,228	30,69265
877,403	20,28848
877,579	118,08269
877,755	53,58137
877,931	24,45016
878,106	68,1466
878,282	18,20764
878,457	53,58137
878,633	84,79228
878,809	49,41983
878,984	66,06587
879,16	7,80332
879,335	22,36933
879,511	32,77347
879,686	49,41983
879,862	74,38877
880,037	28,61182
880,213	55,66213
880,388	111,84084
880,563	45,25827
880,739	32,77347
880,914	22,36933
881,089	5,72244
881,265	-56,70627
881,44	30,69265
881,615	45,25827
881,791	118,08269
881,966	-2,60112
882,141	24,45016
882,316	51,5006
882,492	-27,5723
882,667	20,28848
882,842	18,20764
883,017	-29,65327
883,192	-17,16755
883,367	72,30805
883,542	14,04592
883,718	-17,16755
883,893	9,88419
884,068	-8,84385
884,243	51,5006
884,418	22,36933
884,593	57,74289
884,768	78,55019
884,943	70,22733
885,117	95,19567
885,292	30,69265
885,467	36,93509
885,642	55,66213
885,817	30,69265
885,992	59,82364
886,167	5,72244
886,342	5,72244
886,516	9,88419
886,691	22,36933
886,866	28,61182
887,041	-23,41039
887,215	-6,76293
887,39	28,61182
887,565	14,04592
887,739	34,85428
887,914	124,32451
888,089	-21,32944
888,263	43,17748
888,438	63,98513
888,612	-92,0846
888,787	70,22733
888,962	-56,70627
889,136	-37,97718
889,311	47,33905
889,485	3,64156
889,659	63,98513
889,834	99,35699
890,008	80,63089
890,183	5,72244
890,357	63,98513
890,532	-35,89619
890,706	11,96506
890,88	22,36933
891,055	34,85428
891,229	122,24391
891,403	68,1466
891,577	163,85496
891,752	-48,38218
891,926	36,93509
892,1	122,24391
892,274	74,38877
892,449	43,17748
892,623	74,38877
892,797	18,20764
892,971	51,5006
893,145	-13,00569
893,319	7,80332
893,493	3,64156
893,667	16,12678
893,841	-13,00569
894,015	122,24391
894,189	-58,78731
894,363	80,63089
894,537	3,64156
894,711	63,98513
894,885	84,79228
895,059	36,93509
895,233	18,20764
895,407	-6,76293
895,581	-15,08662
895,755	7,80332
895,928	30,69265
896,102	36,93509
896,276	57,74289
896,45	66,06587
896,623	-54,62524
896,797	22,36933
896,971	9,88419
897,145	78,55019
897,318	-42,13916
897,492	-6,76293
897,666	-15,08662
897,839	36,93509
898,013	-52,54422
898,186	-13,00569
898,36	86,87297
898,534	7,80332
898,707	51,5006
898,881	105,59894
899,054	-15,08662
899,228	-10,92477
899,401	-33,81521
899,574	-29,65327
899,748	93,115
899,921	-17,16755
900,095	39,01589
900,268	57,74289
900,441	39,01589
900,615	32,77347
900,788	70,22733
900,961	-2,60112
901,135	24,45016
901,308	122,24391
901,481	49,41983
901,654	1,56067
901,828	18,20764
902,001	-8,84385
902,174	5,72244
902,347	49,41983
902,52	99,35699
902,693	53,58137
902,866	20,28848
903,04	-23,41039
903,213	-33,81521
903,386	-33,81521
903,559	-73,35471
903,732	5,72244
903,905	-29,65327
904,078	-21,32944
904,251	107,67958
904,424	57,74289
904,596	26,531
904,769	72,30805
904,942	122,24391
905,115	20,28848
905,288	32,77347
905,461	86,87297
905,634	34,85428
905,806	72,30805
905,979	59,82364
906,152	28,61182
906,325	105,59894
906,497	45,25827
906,67	93,115
906,843	103,51829
907,015	43,17748
907,188	-48,38218
907,361	-52,54422
907,533	24,45016
907,706	1,56067
907,878	41,09669
908,051	-8,84385
908,224	101,43765
908,396	24,45016
908,569	16,12678
908,741	24,45016
908,914	32,77347
909,086	107,67958
909,258	145,13023
909,431	91,03433
909,603	57,74289
909,776	82,71159
909,948	41,09669
910,12	22,36933
910,293	24,45016
910,465	41,09669
910,637	-54,62524
910,81	24,45016
910,982	-10,92477
911,154	-37,97718
911,326	78,55019
911,498	97,27633
911,671	-0,52022
911,843	-10,92477
912,015	30,69265
912,187	88,95365
912,359	105,59894
912,531	45,25827
912,703	39,01589
912,875	-60,86835
913,047	34,85428
913,219	72,30805
913,391	-27,5723
913,563	76,46948
913,735	-44,22016
913,907	57,74289
914,079	5,72244
914,251	-10,92477
914,423	36,93509
914,595	-44,22016
914,767	16,12678
914,939	47,33905
915,11	9,88419
915,282	30,69265
915,454	43,17748
915,626	-46,30117
915,797	39,01589
915,969	-42,13916
916,141	14,04592
916,313	-37,97718
916,484	97,27633
916,656	80,63089
916,828	66,06587
916,999	63,98513
917,171	-2,60112
917,342	39,01589
917,514	88,95365
917,685	-17,16755
917,857	1,56067
918,028	97,27633
918,2	1,56067
918,371	-2,60112
918,543	66,06587
918,714	20,28848
918,886	9,88419
919,057	-42,13916
919,229	68,1466
919,4	16,12678
919,571	30,69265
919,743	-87,92236
919,914	11,96506
920,085	-4,68203
920,256	-25,49134
920,428	22,36933
920,599	84,79228
920,77	63,98513
920,941	-2,60112
921,113	66,06587
921,284	22,36933
921,455	16,12678
921,626	68,1466
921,797	-52,54422
921,968	3,64156
922,139	-6,76293
922,31	-0,52022
922,481	82,71159
922,652	1,56067
922,823	5,72244
922,994	99,35699
923,165	78,55019
923,336	49,41983
923,507	66,06587
923,678	76,46948
923,849	61,90439
924,02	51,5006
924,191	61,90439
924,362	7,80332
924,532	41,09669
924,703	5,72244
924,874	70,22733
925,045	88,95365
925,215	7,80332
925,386	53,58137
925,557	-10,92477
925,728	1,56067
925,898	47,33905
926,069	32,77347
926,24	43,17748
926,41	-2,60112
926,581	-33,81521
926,751	-2,60112
926,922	49,41983
927,092	7,80332
927,263	39,01589
927,433	-17,16755
927,604	76,46948
927,774	11,96506
927,945	-42,13916
928,115	-65,03045
928,286	78,55019
928,456	36,93509
928,627	1,56067
928,797	7,80332
928,967	24,45016
929,138	5,72244
929,308	72,30805
929,478	3,64156
929,648	-46,30117
929,819	49,41983
929,989	47,33905
930,159	63,98513
930,329	14,04592
930,5	1,56067
930,67	41,09669
930,84	72,30805
931,01	39,01589
931,18	22,36933
931,35	28,61182
931,52	95,19567
931,69	-44,22016
931,86	-10,92477
932,03	14,04592
932,2	-65,03045
932,37	14,04592
932,54	93,115
932,71	-6,76293
932,88	1,56067
933,05	66,06587
933,22	26,531
933,39	-21,32944
933,56	49,41983
933,73	20,28848
933,899	45,25827
934,069	-25,49134
934,239	9,88419
934,409	-50,46319
934,578	88,95365
934,748	51,5006
934,918	107,67958
935,088	-46,30117
935,257	20,28848
935,427	39,01589
935,596	-37,97718
935,766	78,55019
935,936	-15,08662
936,105	63,98513
936,275	59,82364
936,444	88,95365
936,614	26,531
936,783	95,19567
936,953	39,01589
937,122	57,74289
937,292	55,66213
937,461	16,12678
937,631	-10,92477
937,8	-2,60112
937,969	-25,49134
938,139	34,85428
938,308	66,06587
938,477	63,98513
938,647	105,59894
938,816	-13,00569
938,985	16,12678
939,155	32,77347
939,324	63,98513
939,493	-44,22016
939,662	51,5006
939,831	61,90439
940,001	7,80332
940,17	9,88419
940,339	9,88419
940,508	16,12678
940,677	63,98513
940,846	20,28848
941,015	53,58137
941,184	32,77347
941,353	66,06587
941,522	-2,60112
941,691	14,04592
941,86	59,82364
942,029	99,35699
942,198	7,80332
942,367	1,56067
942,536	18,20764
942,705	-8,84385
942,873	41,09669
943,042	-46,30117
943,211	49,41983
943,38	-21,32944
943,549	-21,32944
943,717	49,41983
943,886	63,98513
944,055	16,12678
944,224	105,59894
944,392	109,76021
944,561	24,45016
944,73	68,1466
944,898	-0,52022
945,067	34,85428
945,235	36,93509
945,404	57,74289
945,572	78,55019
945,741	41,09669
945,91	99,35699
946,078	5,72244
946,247	20,28848
946,415	5,72244
946,583	45,25827
946,752	16,12678
946,92	63,98513
947,089	-15,08662
947,257	22,36933
947,425	22,36933
947,594	45,25827
947,762	26,531
947,93	32,77347
948,099	43,17748
948,267	47,33905
948,435	-31,73424
948,603	-21,32944
948,772	-79,59796
948,94	-17,16755
949,108	5,72244
949,276	-42,13916
949,444	1,56067
949,612	22,36933
949,78	70,22733
949,948	34,85428
950,116	7,80332
950,285	53,58137
950,453	-23,41039
950,621	-10,92477
950,789	-17,16755
950,957	32,77347
951,124	-10,92477
951,292	24,45016
951,46	-40,05817
951,628	-25,49134
951,796	57,74289
951,964	93,115
952,132	53,58137
952,3	32,77347
952,467	-21,32944
952,635	-37,97718
952,803	53,58137
952,971	1,56067
953,138	53,58137
953,306	22,36933
953,474	26,531
953,641	97,27633
953,809	16,12678
953,977	-2,60112
954,144	-27,5723
954,312	82,71159
954,48	-6,76293
954,647	3,64156
954,815	-19,24849
954,982	-52,54422
955,15	45,25827
955,317	16,12678
955,485	5,72244
955,652	-2,60112
955,82	-6,76293
955,987	22,36933
956,154	57,74289
956,322	-10,92477
956,489	43,17748
956,656	-0,52022
956,824	55,66213
956,991	45,25827
957,158	30,69265
957,326	36,93509
957,493	32,77347
957,66	9,88419
957,827	39,01589
957,994	14,04592
958,162	43,17748
958,329	53,58137
958,496	32,77347
958,663	9,88419
958,83	47,33905
958,997	-42,13916
959,164	47,33905
959,331	20,28848
959,498	-79,59796
959,665	63,98513
959,832	74,38877
959,999	-48,38218
960,166	-6,76293
960,333	5,72244
960,5	88,95365
960,667	66,06587
960,834	32,77347
961,001	86,87297
961,168	84,79228
961,334	-23,41039
961,501	11,96506
961,668	-8,84385
961,835	14,04592
962,002	53,58137
962,168	7,80332
962,335	22,36933
962,502	-4,68203
962,668	97,27633
962,835	68,1466
963,002	3,64156
963,168	43,17748
963,335	47,33905
963,502	9,88419
963,668	116,00208
963,835	9,88419
964,001	7,80332
964,168	-56,70627
964,334	36,93509
964,501	-17,16755
964,667	-21,32944
964,834	20,28848
965	28,61182
965,166	80,63089
965,333	86,87297
965,499	-23,41039
965,665	97,27633
965,832	22,36933
965,998	39,01589
966,164	22,36933
966,331	-8,84385
966,497	-23,41039
966,663	5,72244
966,829	34,85428
966,996	51,5006
967,162	-17,16755
967,328	-54,62524
967,494	109,76021
967,66	-13,00569
967,826	20,28848
967,992	16,12678
968,158	5,72244
968,324	16,12678
968,491	30,69265
968,657	-6,76293
968,823	78,55019
968,988	30,69265
969,154	-0,52022
969,32	88,95365
969,486	11,96506
969,652	1,56067
969,818	-2,60112
969,984	32,77347
970,15	-15,08662
970,316	5,72244
970,481	-21,32944
970,647	14,04592
970,813	66,06587
970,979	-17,16755
971,144	30,69265
971,31	-15,08662
971,476	47,33905
971,642	11,96506
971,807	70,22733
971,973	-23,41039
972,138	16,12678
972,304	-40,05817
972,47	59,82364
972,635	-10,92477
972,801	-37,97718
972,966	36,93509
973,132	-29,65327
973,297	20,28848
973,463	5,72244
973,628	43,17748
973,794	-44,22016
973,959	22,36933
974,125	-40,05817
974,29	34,85428
974,455	32,77347
974,621	9,88419
974,786	14,04592
974,951	86,87297
975,117	41,09669
975,282	-13,00569
975,447	41,09669
975,612	18,20764
975,778	1,56067
975,943	-83,76015
976,108	47,33905
976,273	32,77347
976,438	57,74289
976,603	41,09669
976,768	-13,00569
976,934	14,04592
977,099	36,93509
977,264	-33,81521
977,429	28,61182
977,594	47,33905
977,759	-27,5723
977,924	-40,05817
978,089	16,12678
978,254	-2,60112
978,418	34,85428
978,583	1,56067
978,748	20,28848
978,913	111,84084
979,078	-31,73424
979,243	-79,59796
979,408	32,77347
979,572	47,33905
979,737	18,20764
979,902	20,28848
980,067	22,36933
980,231	32,77347
980,396	9,88419
980,561	-0,52022
980,725	51,5006
980,89	-40,05817
981,055	3,64156
981,219	3,64156
981,384	-50,46319
981,548	-50,46319
981,713	-0,52022
981,877	-19,24849
982,042	47,33905
982,206	53,58137
982,371	78,55019
982,535	41,09669
982,7	47,33905
982,864	39,01589
983,029	18,20764
983,193	51,5006
983,357	24,45016
983,522	9,88419
983,686	30,69265
983,85	-21,32944
984,015	66,06587
984,179	16,12678
984,343	103,51829
984,507	-10,92477
984,672	-40,05817
984,836	-17,16755
985	61,90439
985,164	-6,76293
985,328	18,20764
985,492	32,77347
985,656	49,41983
985,821	9,88419
985,985	78,55019
986,149	-75,43579
986,313	70,22733
986,477	-4,68203
986,641	61,90439
986,805	18,20764
986,969	-42,13916
987,133	22,36933
987,296	76,46948
987,46	-6,76293
987,624	-4,68203
987,788	24,45016
987,952	47,33905
988,116	-8,84385
988,28	-21,32944
988,443	-56,70627
988,607	3,64156
988,771	-44,22016
988,935	28,61182
989,098	-65,03045
989,262	-21,32944
989,426	-10,92477
989,589	84,79228
989,753	5,72244
989,917	32,77347
990,08	80,63089
990,244	18,20764
990,407	7,80332
990,571	59,82364
990,734	-21,32944
990,898	-10,92477
991,061	-21,32944
991,225	45,25827
991,388	36,93509
991,552	-56,70627
991,715	34,85428
991,878	51,5006
992,042	-6,76293
992,205	1,56067
992,369	36,93509
992,532	7,80332
992,695	-0,52022
992,858	-62,9494
993,022	-62,9494
993,185	130,56627
993,348	36,93509
993,511	32,77347
993,675	43,17748
993,838	76,46948
994,001	-2,60112
994,164	76,46948
994,327	91,03433
994,49	24,45016
994,653	-8,84385
994,816	30,69265
994,979	-13,00569
995,142	66,06587
995,305	57,74289
995,468	7,80332
995,631	55,66213
995,794	30,69265
995,957	82,71159
996,12	36,93509
996,283	3,64156
996,446	72,30805
996,609	34,85428
996,772	99,35699
996,934	5,72244
997,097	26,531
997,26	18,20764
997,423	-25,49134
997,585	-0,52022
997,748	14,04592
997,911	11,96506
998,074	-0,52022
998,236	-37,97718
998,399	24,45016
998,561	-23,41039
998,724	22,36933
998,887	32,77347
999,049	-48,38218
999,212	32,77347
999,374	7,80332
999,537	5,72244
999,699	36,93509
999,862	-71,27364
1000,024	-33,81521
1000,187	-17,16755
1000,349	26,531
1000,512	-27,5723
1000,674	-2,60112
1000,836	28,61182
1000,999	32,77347
1001,161	-21,32944
1001,323	59,82364
1001,486	84,79228
1001,648	39,01589
1001,81	3,64156
1001,972	-15,08662
1002,134	-37,97718
1002,297	-13,00569
1002,459	30,69265
1002,621	39,01589
1002,783	32,77347
1002,945	-52,54422
1003,107	9,88419
1003,269	34,85428
1003,432	-6,76293
1003,594	16,12678
1003,756	-31,73424
1003,918	32,77347
1004,08	-0,52022
1004,242	82,71159
1004,404	24,45016
1004,565	57,74289
1004,727	-13,00569
1004,889	24,45016
1005,051	-13,00569
1005,213	53,58137
1005,375	16,12678
1005,537	14,04592
1005,698	-37,97718
1005,86	30,69265
1006,022	51,5006
1006,184	70,22733
1006,345	-31,73424
1006,507	5,72244
1006,669	-23,41039
1006,831	61,90439
1006,992	-90,00348
1007,154	20,28848
1007,315	63,98513
1007,477	28,61182
1007,639	-2,60112
1007,8	3,64156
1007,962	14,04592
1008,123	39,01589
1008,285	26,531
1008,446	55,66213
1008,608	-65,03045
1008,769	-44,22016
1008,931	63,98513
1009,092	11,96506
1009,253	80,63089
1009,415	-17,16755
1009,576	-90,00348
1009,737	47,33905
1009,899	51,5006
1010,06	101,43765
1010,221	49,41983
1010,382	82,71159
1010,544	-15,08662
1010,705	7,80332
1010,866	20,28848
1011,027	16,12678
1011,188	-4,68203
1011,35	28,61182
1011,511	-13,00569
1011,672	-27,5723
1011,833	41,09669
1011,994	-52,54422
1012,155	-23,41039
1012,316	-31,73424
1012,477	14,04592
1012,638	49,41983
1012,799	-44,22016
1012,96	41,09669
1013,121	-25,49134
1013,282	72,30805
1013,443	28,61182
1013,604	-69,19257
1013,765	-17,16755
1013,925	36,93509
1014,086	-10,92477
1014,247	72,30805
1014,408	68,1466
1014,569	-4,68203
1014,729	-15,08662
1014,89	88,95365
1015,051	43,17748
1015,211	36,93509
1015,372	18,20764
1015,533	-29,65327
1015,693	-15,08662
1015,854	11,96506
1016,015	22,36933
1016,175	3,64156
1016,336	-23,41039
1016,496	66,06587
1016,657	63,98513
1016,817	30,69265
1016,978	-15,08662
1017,138	16,12678
1017,299	7,80332
1017,459	-2,60112
1017,62	39,01589
1017,78	-33,81521
1017,94	16,12678
1018,101	-29,65327
1018,261	9,88419
1018,421	-40,05817
1018,582	32,77347
1018,742	24,45016
1018,902	1,56067
1019,062	-0,52022
1019,223	7,80332
1019,383	41,09669
1019,543	-4,68203
1019,703	82,71159
1019,863	-25,49134
1020,023	-8,84385
1020,184	-29,65327
1020,344	-6,76293
1020,504	-4,68203
1020,664	66,06587
1020,824	-0,52022
1020,984	1,56067
1021,144	24,45016
1021,304	-10,92477
1021,464	41,09669
1021,624	-21,32944
1021,784	-54,62524
1021,943	53,58137
1022,103	-56,70627
1022,263	-37,97718
1022,423	80,63089
1022,583	30,69265
1022,743	-44,22016
1022,902	36,93509
1023,062	1,56067
1023,222	-27,5723
1023,382	14,04592
1023,541	-15,08662
1023,701	-31,73424
1023,861	-13,00569
1024,02	-56,70627
1024,18	43,17748
1024,34	-79,59796
1024,499	74,38877
1024,659	55,66213
1024,818	16,12678
1024,978	-29,65327
1025,137	-48,38218
1025,297	28,61182
1025,456	18,20764
1025,616	-8,84385
1025,775	88,95365
1025,935	53,58137
1026,094	84,79228
1026,254	86,87297
1026,413	-29,65327
1026,572	43,17748
1026,732	-19,24849
1026,891	-21,32944
1027,05	14,04592
1027,21	-23,41039
1027,369	-21,32944
1027,528	72,30805
1027,687	-10,92477
1027,846	-10,92477
1028,006	36,93509
1028,165	1,56067
1028,324	68,1466
1028,483	18,20764
1028,642	-23,41039
1028,801	26,531
1028,96	-58,78731
1029,119	-29,65327
1029,278	11,96506
1029,437	16,12678
1029,596	78,55019
1029,755	70,22733
1029,914	-10,92477
1030,073	39,01589
1030,232	45,25827
1030,391	-60,86835
1030,55	1,56067
1030,709	59,82364
1030,868	-2,60112
1031,026	14,04592
1031,185	26,531
1031,344	-46,30117
1031,503	11,96506
1031,662	34,85428
1031,82	84,79228
1031,979	-8,84385
1032,138	30,69265
1032,296	-44,22016
1032,455	20,28848
1032,614	-33,81521
1032,772	24,45016
1032,931	14,04592
1033,089	22,36933
1033,248	-2,60112
1033,407	41,09669
1033,565	61,90439
1033,724	30,69265
1033,882	47,33905
1034,04	18,20764
1034,199	-33,81521
1034,357	47,33905
1034,516	43,17748
1034,674	30,69265
1034,832	86,87297
1034,991	-4,68203
1035,149	14,04592
1035,307	57,74289
1035,466	-40,05817
1035,624	9,88419
1035,782	76,46948
1035,941	-6,76293
1036,099	74,38877
1036,257	-50,46319
1036,415	11,96506
1036,573	57,74289
1036,731	-17,16755
1036,889	82,71159
1037,048	-71,27364
1037,206	-85,84125
1037,364	-33,81521
1037,522	-0,52022
1037,68	-50,46319
1037,838	5,72244
1037,996	5,72244
1038,154	5,72244
