Data from 17-06-meltmethod-300mgPTP-0.3PC-epinglesbig_FLMT001621__0__14-59-30-220.txt Node

Date: Thu Jun 18 14:59:30 EDT 2026
User: lucas
Spectrometer: FLMT00162
Trigger mode: 0
Integration Time (sec): 1,000000E-2
Scans to average: 1
Electric dark correction enabled: true
Nonlinearity correction enabled: true
Boxcar width: 0
XAxis mode: Wavelengths
Number of Pixels in Spectrum: 3648
>>>>>Begin Spectral Data<<<<<
345,274	10,75122
345,493	10,75122
345,712	10,75122
345,932	6,58947
346,151	46,12526
346,37	-22,54332
346,59	-43,35308
346,809	56,52911
347,028	-16,3005
347,247	-14,21957
347,467	14,91295
347,686	-28,7862
347,905	-20,46238
348,124	-37,1101
348,343	31,55966
348,563	33,64047
348,782	52,36759
349,001	39,88289
349,22	31,55966
349,439	29,47883
349,658	79,41715
349,877	10,75122
350,096	66,93284
350,315	-16,3005
350,534	44,04447
350,753	77,33644
350,972	-43,35308
351,191	75,25573
351,41	25,31718
351,629	2,42771
351,848	-30,86716
352,067	21,1555
352,286	16,9938
352,505	-28,7862
352,724	14,91295
352,943	19,07466
353,162	35,72128
353,381	-28,7862
353,599	-26,70523
353,818	41,96368
354,037	-68,32546
354,256	31,55966
354,475	-30,86716
354,693	79,41715
354,912	62,77136
355,131	-3,81498
355,35	0,34682
355,568	-14,21957
355,787	-10,05772
356,006	-22,54332
356,224	-5,89589
356,443	79,41715
356,661	-64,16334
356,88	54,44835
357,099	52,36759
357,317	-51,67712
357,536	-30,86716
357,754	2,42771
357,973	39,88289
358,191	93,98195
358,41	-20,46238
358,628	19,07466
358,847	-47,51509
359,065	-24,62428
359,284	-30,86716
359,502	19,07466
359,721	-14,21957
359,939	-18,38144
360,157	-28,7862
360,376	39,88289
360,594	10,75122
360,813	-14,21957
361,031	41,96368
361,249	-14,21957
361,467	41,96368
361,686	-18,38144
361,904	-109,94775
362,122	-12,13864
362,341	31,55966
362,559	0,34682
362,777	0,34682
362,995	-7,9768
363,213	31,55966
363,431	-12,13864
363,65	-41,27208
363,868	79,41715
364,086	-7,9768
364,304	25,31718
364,522	-14,21957
364,74	54,44835
364,958	-35,02912
365,176	46,12526
365,394	54,44835
365,612	64,8521
365,83	6,58947
366,048	-7,9768
366,266	127,27201
366,484	39,88289
366,702	21,1555
366,92	37,80209
367,138	-24,62428
367,356	64,8521
367,574	-37,1101
367,792	48,20604
368,01	-10,05772
368,227	71,0943
368,445	-16,3005
368,663	44,04447
368,881	-12,13864
369,099	-7,9768
369,316	-35,02912
369,534	62,77136
369,752	-93,29858
369,97	31,55966
370,187	-16,3005
370,405	33,64047
370,623	-22,54332
370,84	-28,7862
371,058	-12,13864
371,276	0,34682
371,493	-12,13864
371,711	31,55966
371,928	-10,05772
372,146	52,36759
372,364	0,34682
372,581	73,17502
372,799	0,34682
373,016	75,25573
373,234	31,55966
373,451	12,83209
373,669	-7,9768
373,886	116,869
374,103	-20,46238
374,321	66,93284
374,538	56,52911
374,756	16,9938
374,973	46,12526
375,19	98,14328
375,408	87,73992
375,625	12,83209
375,842	79,41715
376,06	102,30458
376,277	16,9938
376,494	2,42771
376,712	73,17502
376,929	31,55966
377,146	73,17502
377,363	116,869
377,581	85,65924
377,798	75,25573
378,015	-24,62428
378,232	37,80209
378,449	108,54651
378,666	6,58947
378,883	16,9938
379,101	83,57854
379,318	31,55966
379,535	62,77136
379,752	-12,13864
379,969	33,64047
380,186	71,0943
380,403	-7,9768
380,62	10,75122
380,837	-1,73408
381,054	-3,81498
381,271	23,23634
381,488	21,1555
381,705	14,91295
381,921	-62,0823
382,138	31,55966
382,355	-70,40653
382,572	48,20604
382,789	8,67035
383,006	39,88289
383,223	-57,92021
383,439	114,78839
383,656	-3,81498
383,873	50,28682
384,09	41,96368
384,306	62,77136
384,523	-70,40653
384,74	31,55966
384,957	-66,2444
385,173	87,73992
385,39	52,36759
385,607	10,75122
385,823	-20,46238
386,04	145,99712
386,256	44,04447
386,473	52,36759
386,69	-14,21957
386,906	-5,89589
387,123	-22,54332
387,339	27,39801
387,556	98,14328
387,772	10,75122
387,989	73,17502
388,205	-18,38144
388,422	-47,51509
388,638	16,9938
388,855	23,23634
389,071	-16,3005
389,287	54,44835
389,504	-35,02912
389,72	4,50859
389,937	50,28682
390,153	29,47883
390,369	35,72128
390,585	41,96368
390,802	56,52911
391,018	0,34682
391,234	6,58947
391,451	23,23634
391,667	25,31718
391,883	25,31718
392,099	58,60987
392,315	-12,13864
392,532	-32,94814
392,748	62,77136
392,964	16,9938
393,18	25,31718
393,396	81,49785
393,612	-66,2444
393,828	-55,83918
394,044	-37,1101
394,26	66,93284
394,477	104,38523
394,693	71,0943
394,909	-30,86716
395,125	56,52911
395,341	50,28682
395,557	77,33644
395,772	52,36759
395,988	39,88289
396,204	75,25573
396,42	-16,3005
396,636	-1,73408
396,852	31,55966
397,068	-62,0823
397,284	-7,9768
397,5	29,47883
397,715	79,41715
397,931	100,22393
398,147	-5,89589
398,363	0,34682
398,578	27,39801
398,794	-39,19109
399,01	25,31718
399,226	39,88289
399,441	-41,27208
399,657	-22,54332
399,873	27,39801
400,088	-95,37971
400,304	25,31718
400,52	54,44835
400,735	73,17502
400,951	35,72128
401,166	-5,89589
401,382	16,9938
401,597	-10,05772
401,813	-12,13864
402,029	-35,02912
402,244	-30,86716
402,46	108,54651
402,675	-24,62428
402,89	73,17502
403,106	21,1555
403,321	10,75122
403,537	8,67035
403,752	-41,27208
403,968	96,06262
404,183	-39,19109
404,398	2,42771
404,614	29,47883
404,829	-78,73084
405,044	52,36759
405,26	-10,05772
405,475	27,39801
405,69	27,39801
405,905	23,23634
406,121	6,58947
406,336	62,77136
406,551	23,23634
406,766	6,58947
406,981	4,50859
407,196	62,77136
407,412	14,91295
407,627	12,83209
407,842	4,50859
408,057	-14,21957
408,272	-35,02912
408,487	37,80209
408,702	6,58947
408,917	60,69062
409,132	-5,89589
409,347	-7,9768
409,562	-18,38144
409,777	-7,9768
409,992	44,04447
410,207	-1,73408
410,422	16,9938
410,637	41,96368
410,852	12,83209
411,067	23,23634
411,282	-7,9768
411,496	58,60987
411,711	133,51376
411,926	118,94962
412,141	50,28682
412,356	50,28682
412,571	83,57854
412,785	4,50859
413	-14,21957
413,215	-32,94814
413,429	4,50859
413,644	29,47883
413,859	6,58947
414,074	48,20604
414,288	104,38523
414,503	-64,16334
414,718	85,65924
414,932	-41,27208
415,147	66,93284
415,361	-22,54332
415,576	35,72128
415,79	56,52911
416,005	0,34682
416,22	-3,81498
416,434	14,91295
416,649	19,07466
416,863	50,28682
417,077	50,28682
417,292	-22,54332
417,506	121,03022
417,721	10,75122
417,935	66,93284
418,15	8,67035
418,364	14,91295
418,578	14,91295
418,793	19,07466
419,007	91,90128
419,221	21,1555
419,436	-53,75815
419,65	-87,05523
419,864	-22,54332
420,078	50,28682
420,293	10,75122
420,507	81,49785
420,721	27,39801
420,935	48,20604
421,149	16,9938
421,364	19,07466
421,578	54,44835
421,792	-76,64975
422,006	58,60987
422,22	4,50859
422,434	60,69062
422,648	19,07466
422,862	12,83209
423,076	46,12526
423,29	56,52911
423,504	-14,21957
423,718	-1,73408
423,932	19,07466
424,146	106,46587
424,36	54,44835
424,574	81,49785
424,788	37,80209
425,002	-1,73408
425,216	-20,46238
425,43	118,94962
425,644	-12,13864
425,858	-18,38144
426,071	8,67035
426,285	-55,83918
426,499	6,58947
426,713	-22,54332
426,927	-41,27208
427,14	-28,7862
427,354	60,69062
427,568	-7,9768
427,782	48,20604
427,995	37,80209
428,209	31,55966
428,423	-5,89589
428,636	29,47883
428,85	-12,13864
429,063	-47,51509
429,277	12,83209
429,491	85,65924
429,704	44,04447
429,918	52,36759
430,131	89,8206
430,345	-72,4876
430,558	-22,54332
430,772	27,39801
430,985	48,20604
431,199	-24,62428
431,412	19,07466
431,626	-30,86716
431,839	-30,86716
432,053	33,64047
432,266	50,28682
432,479	-14,21957
432,693	81,49785
432,906	39,88289
433,119	21,1555
433,333	41,96368
433,546	-5,89589
433,759	83,57854
433,973	16,9938
434,186	14,91295
434,399	50,28682
434,612	14,91295
434,825	79,41715
435,039	108,54651
435,252	50,28682
435,465	71,0943
435,678	71,0943
435,891	77,33644
436,104	66,93284
436,318	4,50859
436,531	35,72128
436,744	85,65924
436,957	44,04447
437,17	33,64047
437,383	-1,73408
437,596	48,20604
437,809	114,78839
438,022	39,88289
438,235	37,80209
438,448	29,47883
438,661	100,22393
438,874	79,41715
439,086	33,64047
439,299	-1,73408
439,512	85,65924
439,725	16,9938
439,938	48,20604
440,151	16,9938
440,364	29,47883
440,576	-5,89589
440,789	71,0943
441,002	8,67035
441,215	-32,94814
441,427	2,42771
441,64	39,88289
441,853	27,39801
442,066	21,1555
442,278	21,1555
442,491	-10,05772
442,704	8,67035
442,916	-5,89589
443,129	85,65924
443,341	-43,35308
443,554	-24,62428
443,767	37,80209
443,979	6,58947
444,192	39,88289
444,404	41,96368
444,617	25,31718
444,829	44,04447
445,042	54,44835
445,254	-3,81498
445,467	21,1555
445,679	54,44835
445,892	52,36759
446,104	23,23634
446,316	-18,38144
446,529	35,72128
446,741	6,58947
446,953	10,75122
447,166	12,83209
447,378	79,41715
447,59	14,91295
447,803	-62,0823
448,015	23,23634
448,227	10,75122
448,439	23,23634
448,652	16,9938
448,864	6,58947
449,076	21,1555
449,288	6,58947
449,5	96,06262
449,712	-12,13864
449,925	71,0943
450,137	23,23634
450,349	58,60987
450,561	-26,70523
450,773	-5,89589
450,985	-5,89589
451,197	-7,9768
451,409	-16,3005
451,621	79,41715
451,833	14,91295
452,045	35,72128
452,257	37,80209
452,469	25,31718
452,681	-30,86716
452,893	37,80209
453,105	2,42771
453,317	39,88289
453,529	-45,43408
453,74	85,65924
453,952	64,8521
454,164	27,39801
454,376	-24,62428
454,588	60,69062
454,799	19,07466
455,011	21,1555
455,223	35,72128
455,435	62,77136
455,646	10,75122
455,858	31,55966
456,07	-39,19109
456,281	48,20604
456,493	-18,38144
456,705	85,65924
456,916	-32,94814
457,128	23,23634
457,34	66,93284
457,551	66,93284
457,763	-72,4876
457,974	37,80209
458,186	8,67035
458,397	-66,2444
458,609	108,54651
458,82	81,49785
459,032	10,75122
459,243	-3,81498
459,455	8,67035
459,666	54,44835
459,878	25,31718
460,089	114,78839
460,3	6,58947
460,512	21,1555
460,723	89,8206
460,934	-12,13864
461,146	83,57854
461,357	-7,9768
461,568	64,8521
461,78	58,60987
461,991	85,65924
462,202	-16,3005
462,413	12,83209
462,625	71,0943
462,836	83,57854
463,047	27,39801
463,258	29,47883
463,469	106,46587
463,68	-39,19109
463,891	-3,81498
464,103	39,88289
464,314	39,88289
464,525	71,0943
464,736	14,91295
464,947	35,72128
465,158	96,06262
465,369	75,25573
465,58	44,04447
465,791	62,77136
466,002	23,23634
466,213	10,75122
466,424	50,28682
466,635	27,39801
466,846	-26,70523
467,056	21,1555
467,267	106,46587
467,478	100,22393
467,689	-1,73408
467,9	16,9938
468,111	81,49785
468,322	33,64047
468,532	-24,62428
468,743	0,34682
468,954	62,77136
469,165	-49,5961
469,375	66,93284
469,586	46,12526
469,797	50,28682
470,007	-35,02912
470,218	-7,9768
470,429	16,9938
470,639	31,55966
470,85	0,34682
471,061	12,83209
471,271	62,77136
471,482	54,44835
471,692	62,77136
471,903	-37,1101
472,113	-1,73408
472,324	19,07466
472,534	64,8521
472,745	-26,70523
472,955	64,8521
473,166	75,25573
473,376	31,55966
473,587	96,06262
473,797	66,93284
474,007	-32,94814
474,218	-49,5961
474,428	-7,9768
474,638	56,52911
474,849	-3,81498
475,059	-16,3005
475,269	33,64047
475,48	83,57854
475,69	-3,81498
475,9	85,65924
476,11	71,0943
476,321	25,31718
476,531	41,96368
476,741	-5,89589
476,951	-18,38144
477,161	52,36759
477,371	66,93284
477,581	46,12526
477,792	-1,73408
478,002	66,93284
478,212	-14,21957
478,422	-7,9768
478,632	-10,05772
478,842	37,80209
479,052	25,31718
479,262	14,91295
479,472	37,80209
479,682	0,34682
479,892	48,20604
480,102	71,0943
480,312	4,50859
480,522	77,33644
480,731	-53,75815
480,941	71,0943
481,151	-5,89589
481,361	56,52911
481,571	89,8206
481,781	60,69062
481,991	27,39801
482,2	-14,21957
482,41	29,47883
482,62	25,31718
482,83	48,20604
483,039	39,88289
483,249	-101,62313
483,459	73,17502
483,668	33,64047
483,878	-66,2444
484,088	-24,62428
484,297	16,9938
484,507	50,28682
484,716	-57,92021
484,926	-12,13864
485,136	54,44835
485,345	25,31718
485,555	16,9938
485,764	-16,3005
485,974	2,42771
486,183	52,36759
486,393	83,57854
486,602	-12,13864
486,812	-20,46238
487,021	39,88289
487,23	35,72128
487,44	4,50859
487,649	93,98195
487,859	-10,05772
488,068	-66,2444
488,277	-26,70523
488,487	-68,32546
488,696	-18,38144
488,905	58,60987
489,115	33,64047
489,324	66,93284
489,533	46,12526
489,742	29,47883
489,951	50,28682
490,161	12,83209
490,37	71,0943
490,579	-39,19109
490,788	60,69062
490,997	-32,94814
491,206	56,52911
491,415	-43,35308
491,625	39,88289
491,834	23,23634
492,043	58,60987
492,252	62,77136
492,461	-12,13864
492,67	-28,7862
492,879	87,73992
493,088	-91,21746
493,297	64,8521
493,506	48,20604
493,715	-35,02912
493,924	114,78839
494,132	46,12526
494,341	21,1555
494,55	50,28682
494,759	25,31718
494,968	16,9938
495,177	60,69062
495,386	14,91295
495,594	87,73992
495,803	46,12526
496,012	29,47883
496,221	48,20604
496,429	8,67035
496,638	56,52911
496,847	44,04447
497,055	-14,21957
497,264	21,1555
497,473	16,9938
497,681	37,80209
497,89	52,36759
498,099	-55,83918
498,307	31,55966
498,516	58,60987
498,724	127,27201
498,933	143,91657
499,141	31,55966
499,35	21,1555
499,558	46,12526
499,767	-5,89589
499,975	31,55966
500,184	62,77136
500,392	-43,35308
500,601	-47,51509
500,809	110,62714
501,018	-20,46238
501,226	-5,89589
501,434	54,44835
501,643	10,75122
501,851	19,07466
502,059	19,07466
502,268	-1,73408
502,476	31,55966
502,684	27,39801
502,892	-22,54332
503,101	10,75122
503,309	75,25573
503,517	21,1555
503,725	14,91295
503,933	56,52911
504,141	139,75546
504,35	12,83209
504,558	-14,21957
504,766	50,28682
504,974	37,80209
505,182	29,47883
505,39	-18,38144
505,598	2,42771
505,806	91,90128
506,014	23,23634
506,222	39,88289
506,43	50,28682
506,638	48,20604
506,846	37,80209
507,054	54,44835
507,262	16,9938
507,47	21,1555
507,678	-12,13864
507,886	2,42771
508,094	-1,73408
508,301	46,12526
508,509	73,17502
508,717	35,72128
508,925	-30,86716
509,133	21,1555
509,34	31,55966
509,548	33,64047
509,756	23,23634
509,964	14,91295
510,171	-1,73408
510,379	62,77136
510,587	58,60987
510,794	71,0943
511,002	-66,2444
511,21	8,67035
511,417	-72,4876
511,625	29,47883
511,832	23,23634
512,04	16,9938
512,247	-16,3005
512,455	10,75122
512,663	19,07466
512,87	-74,56867
513,078	-12,13864
513,285	21,1555
513,492	14,91295
513,7	-14,21957
513,907	62,77136
514,115	93,98195
514,322	10,75122
514,529	41,96368
514,737	39,88289
514,944	77,33644
515,152	48,20604
515,359	44,04447
515,566	12,83209
515,773	58,60987
515,981	-1,73408
516,188	54,44835
516,395	6,58947
516,602	35,72128
516,81	62,77136
517,017	21,1555
517,224	69,01357
517,431	66,93284
517,638	-60,00125
517,845	-51,67712
518,053	48,20604
518,26	-10,05772
518,467	-49,5961
518,674	21,1555
518,881	-24,62428
519,088	21,1555
519,295	-53,75815
519,502	108,54651
519,709	6,58947
519,916	-28,7862
520,123	31,55966
520,33	14,91295
520,537	46,12526
520,744	25,31718
520,95	31,55966
521,157	21,1555
521,364	16,9938
521,571	27,39801
521,778	-49,5961
521,985	21,1555
522,191	52,36759
522,398	4,50859
522,605	6,58947
522,812	25,31718
523,019	139,75546
523,225	2,42771
523,432	56,52911
523,639	-53,75815
523,845	33,64047
524,052	33,64047
524,259	60,69062
524,465	25,31718
524,672	64,8521
524,878	16,9938
525,085	25,31718
525,292	48,20604
525,498	58,60987
525,705	-32,94814
525,911	25,31718
526,118	4,50859
526,324	46,12526
526,531	-12,13864
526,737	83,57854
526,944	54,44835
527,15	52,36759
527,356	-5,89589
527,563	-22,54332
527,769	4,50859
527,975	73,17502
528,182	2,42771
528,388	-55,83918
528,594	56,52911
528,801	14,91295
529,007	-16,3005
529,213	23,23634
529,42	10,75122
529,626	-24,62428
529,832	141,83602
530,038	0,34682
530,244	58,60987
530,451	64,8521
530,657	62,77136
530,863	29,47883
531,069	12,83209
531,275	-20,46238
531,481	50,28682
531,687	-1,73408
531,893	-22,54332
532,099	39,88289
532,305	14,91295
532,511	21,1555
532,717	33,64047
532,923	6,58947
533,129	16,9938
533,335	79,41715
533,541	27,39801
533,747	-24,62428
533,953	29,47883
534,159	-7,9768
534,365	56,52911
534,571	-5,89589
534,777	-7,9768
534,982	56,52911
535,188	29,47883
535,394	29,47883
535,6	-14,21957
535,806	33,64047
536,011	37,80209
536,217	-30,86716
536,423	-1,73408
536,628	48,20604
536,834	-7,9768
537,04	73,17502
537,245	56,52911
537,451	58,60987
537,657	37,80209
537,862	-20,46238
538,068	-12,13864
538,273	-16,3005
538,479	-49,5961
538,685	85,65924
538,89	81,49785
539,096	6,58947
539,301	66,93284
539,507	16,9938
539,712	73,17502
539,917	-20,46238
540,123	-12,13864
540,328	29,47883
540,534	0,34682
540,739	75,25573
540,944	48,20604
541,15	52,36759
541,355	-5,89589
541,56	16,9938
541,766	108,54651
541,971	16,9938
542,176	35,72128
542,382	2,42771
542,587	37,80209
542,792	29,47883
542,997	37,80209
543,202	23,23634
543,408	23,23634
543,613	23,23634
543,818	93,98195
544,023	123,11082
544,228	-41,27208
544,433	12,83209
544,638	4,50859
544,843	19,07466
545,049	21,1555
545,254	71,0943
545,459	-5,89589
545,664	19,07466
545,869	110,62714
546,074	-1,73408
546,279	35,72128
546,483	69,01357
546,688	19,07466
546,893	27,39801
547,098	21,1555
547,303	48,20604
547,508	-43,35308
547,713	44,04447
547,918	35,72128
548,122	-5,89589
548,327	29,47883
548,532	0,34682
548,737	48,20604
548,942	31,55966
549,146	102,30458
549,351	10,75122
549,556	8,67035
549,76	150,1582
549,965	16,9938
550,17	39,88289
550,374	106,46587
550,579	12,83209
550,784	75,25573
550,988	41,96368
551,193	29,47883
551,397	-7,9768
551,602	73,17502
551,806	21,1555
552,011	12,83209
552,215	-1,73408
552,42	79,41715
552,624	21,1555
552,829	56,52911
553,033	77,33644
553,238	-12,13864
553,442	52,36759
553,646	52,36759
553,851	12,83209
554,055	14,91295
554,26	-14,21957
554,464	77,33644
554,668	31,55966
554,872	31,55966
555,077	79,41715
555,281	14,91295
555,485	73,17502
555,69	83,57854
555,894	133,51376
556,098	156,39979
556,302	66,93284
556,506	21,1555
556,71	58,60987
556,915	83,57854
557,119	91,90128
557,323	183,44615
557,527	123,11082
557,731	166,80233
557,935	154,31926
558,139	133,51376
558,343	133,51376
558,547	162,64133
558,751	183,44615
558,955	139,75546
559,159	250,01834
559,363	270,82115
559,567	281,22238
559,771	200,08966
559,975	250,01834
560,179	229,21506
560,382	164,72183
560,586	308,26501
560,79	291,62348
560,994	287,46305
561,198	322,8261
561,402	291,62348
561,605	279,14214
561,809	283,30261
562,013	256,25924
562,217	333,22674
562,42	295,78389
562,624	272,9014
562,828	233,37576
563,031	233,37576
563,235	283,30261
563,439	372,7481
563,642	312,42534
563,846	287,46305
564,049	258,33952
564,253	333,22674
564,456	337,38696
564,66	335,30685
564,863	347,78743
565,067	383,14818
565,27	337,38696
565,474	318,66581
565,677	356,10773
565,881	391,46816
566,084	324,90624
566,288	406,02795
566,491	406,02795
566,694	312,42534
566,898	387,30818
567,101	391,46816
567,304	358,18779
567,508	403,94799
567,711	406,02795
567,914	422,66743
568,118	420,58751
568,321	395,62812
568,524	414,34773
568,727	403,94799
568,93	458,02537
569,134	485,0629
569,337	406,02795
569,54	453,86568
569,743	464,26487
569,946	487,14268
570,149	547,45432
570,352	537,05603
570,555	493,38199
570,758	566,17096
570,962	547,45432
571,165	545,37467
571,368	551,61361
571,571	572,40976
571,774	495,46175
571,976	624,39823
572,179	580,7281
572,382	530,817
572,585	549,53396
572,788	626,47772
572,991	674,3046
573,194	566,17096
573,397	578,64853
573,6	528,73732
573,802	684,70144
574,005	720,04991
574,208	695,09818
574,411	684,70144
574,613	717,97063
574,816	767,87235
575,019	730,44629
575,222	730,44629
575,424	734,6048
575,627	755,39715
575,83	776,18906
576,032	790,74315
576,235	740,84255
576,438	776,18906
576,64	832,32513
576,843	851,03647
577,045	815,69254
577,248	869,74748
577,45	813,61345
577,653	840,64132
577,855	946,66699
578,058	844,7994
578,26	900,93174
578,463	907,16849
578,665	957,06109
578,868	923,79961
579,07	1004,87263
579,272	1088,01805
579,475	1002,79391
579,677	1060,99649
579,879	957,06109
580,082	1115,03894
580,284	1210,64596
580,486	1133,74531
580,689	1129,58837
580,891	1173,23551
581,093	1223,11583
581,295	1291,69763
581,498	1275,07212
581,7	1302,08844
581,902	1385,21153
582,104	1339,49459
582,306	1524,42918
582,508	1516,11815
582,71	1582,60474
582,913	1528,58467
583,115	1609,61384
583,317	1690,63744
583,519	1669,86268
583,721	1752,95953
583,923	1784,11936
584,125	1881,74829
584,327	1919,13601
584,529	2049,98407
584,731	2178,74168
584,933	2172,51178
585,135	2209,89072
585,336	2199,50779
585,538	2355,24269
585,74	2498,50189
585,942	2637,59327
586,144	2672,88271
586,346	2791,19907
586,547	2720,62571
586,749	2807,804
586,951	2998,74541
587,153	3144,00801
587,355	3403,36486
587,556	3488,42252
587,758	3440,70794
587,96	3631,55559
588,161	3592,14374
588,363	3870,07494
588,565	3909,47815
588,766	4179,04571
588,968	4286,85629
589,17	4413,31427
589,371	4697,27804
589,573	4720,07511
589,774	4780,17435
589,976	5215,28239
590,177	5275,35561
590,379	5271,21273
590,58	5536,32536
590,782	5830,35835
590,983	5977,34395
591,185	6136,72704
591,386	6432,65692
591,587	6689,19471
591,789	6922,9145
591,99	7185,5198
592,192	7303,35707
592,393	7404,6432
592,594	7900,56638
592,796	7985,25732
592,997	8140,15715
593,198	8790,40775
593,399	8967,8415
593,601	9116,35848
593,802	9576,15855
594,003	9912,05964
594,204	10097,45771
594,405	10523,68394
594,607	10733,60993
594,808	11163,54563
595,009	11488,38179
595,21	11753,47526
595,411	12162,20272
595,612	12513,21057
595,813	12814,79797
596,014	13378,60306
596,215	13591,69172
596,416	13976,70685
596,617	14306,24015
596,818	14842,13367
597,019	15167,13331
597,22	15673,72797
597,421	16045,25763
597,622	16345,19111
597,823	16640,91698
598,024	17075,10565
598,225	17462,19396
598,426	17948,83333
598,627	18319,2149
598,827	18636,55571
599,028	19102,19159
599,229	19600,11035
599,43	19841,86983
599,63	20384,11639
599,831	20696,76422
600,032	21181,8384
600,233	21490,25941
600,433	21940,62336
600,634	21971,04982
600,835	22796,4861
601,035	23023,59786
601,236	23506,18103
601,437	23723,13347
601,637	24179,34195
601,838	24073,90622
602,038	24889,0475
602,239	24453,07497
602,439	25473,13283
602,64	25357,52284
602,841	25905,20182
603,041	26024,89945
603,241	26231,85338
603,442	26645,84153
603,642	27090,40578
603,843	27161,46928
604,043	27145,22582
604,244	27330,00827
604,444	27435,61154
604,644	27811,39872
604,845	28201,5525
605,045	27815,46203
605,245	28118,2251
605,446	28447,51402
605,646	28494,27469
605,846	28351,96729
606,046	28634,57177
606,247	28638,6387
606,447	28669,14125
606,647	28673,20834
606,847	29163,44022
607,047	28510,53985
607,248	28776,92577
607,448	28500,37409
607,648	28644,73912
607,848	28689,47689
608,048	28896,92881
608,248	28301,14871
608,448	28797,26404
608,648	28203,58496
608,848	28909,1335
609,048	28134,48353
609,248	28421,08518
609,448	27612,31651
609,648	27819,52535
609,848	27433,58062
610,048	27431,5497
610,248	26905,65978
610,448	26680,3458
610,648	26487,53854
610,847	26915,80996
611,047	26158,80796
611,247	26351,57377
611,447	25856,51344
611,647	25700,313
611,846	25410,25655
612,046	25085,7578
612,246	24605,15382
612,446	24414,54896
612,645	23834,65057
612,845	23863,03674
613,045	23526,45707
613,244	22719,42756
613,444	22863,40416
613,644	22516,63411
613,843	22019,7313
614,043	21993,36229
614,243	21646,47842
614,442	21125,01771
614,642	20826,6744
614,841	20804,34694
615,041	20617,59418
615,24	20032,8019
615,44	19756,54915
615,639	19642,77776
615,839	19340,00419
616,038	18738,24321
616,237	18986,31287
616,437	18473,83136
616,636	17887,76533
616,836	18101,48323
617,035	17494,78182
617,234	17883,69396
617,434	17280,8985
617,633	17158,65219
617,832	17034,3478
618,032	16938,55793
618,231	16610,33041
618,43	16492,04988
618,629	15802,35763
618,828	16304,39151
619,028	15757,44215
619,227	15393,92352
619,426	15330,59363
619,625	15099,69397
619,824	14958,66177
620,023	14958,66177
620,222	14764,43653
620,422	14707,17998
620,621	14555,83441
620,82	14627,42124
621,019	14300,10135
621,218	14232,57061
621,417	13950,09105
621,616	13964,42277
621,815	13753,50875
622,014	13962,3754
622,213	13614,22571
622,411	13657,24289
622,61	13294,57703
622,809	13407,29229
623,008	13081,38724
623,207	13456,47078
623,406	13149,04186
623,605	13116,24054
623,803	12724,54209
624,002	13103,9396
624,201	12658,8933
624,4	12677,35771
624,598	12706,07906
624,797	12568,61502
624,996	12416,75417
625,195	12416,75417
625,393	12482,42822
625,592	12201,21321
625,791	12453,69666
625,989	12197,10696
626,188	11971,22201
626,386	12209,42564
626,585	12141,66991
626,784	11833,59826
626,982	11790,45635
627,181	11862,35791
627,379	11932,1974
627,578	11722,65606
627,776	11297,20039
627,975	11693,89013
628,173	11471,9383
628,371	11428,77213
628,57	11188,22241
628,768	11348,59878
628,967	11140,92442
629,165	11210,84198
629,363	10949,64129
629,562	11159,43274
629,76	10968,15499
629,958	11212,89826
630,157	11042,20459
630,355	10953,75549
630,553	10972,26908
630,751	11044,2614
630,95	10768,5912
631,148	10603,95751
631,346	10832,37584
631,544	10898,21163
631,742	10708,91617
631,94	10970,21204
632,139	10723,32097
632,337	10857,06503
632,535	10918,78398
632,733	11013,40851
632,931	11173,82773
633,129	11383,54735
633,327	11177,94053
633,525	11254,02261
633,723	11239,62939
633,921	11410,27147
634,119	11494,548
634,317	12032,83496
634,515	11936,30537
634,713	12149,88311
634,91	12174,52208
635,108	12404,43952
635,306	12488,58481
635,504	12847,61508
635,702	12933,75181
635,9	13183,89139
636,097	13519,98728
636,295	13647,00097
636,493	13786,27674
636,691	14009,4632
636,888	14388,08514
637,086	14703,09003
637,284	15077,21264
637,482	15714,56546
637,679	15710,48183
637,877	16067,70618
638,075	16547,11397
638,272	16634,79977
638,47	16753,05649
638,667	17500,89189
638,865	17488,6717
639,062	18032,28548
639,26	18614,1829
639,457	18799,25018
639,655	18943,61711
639,852	19539,15388
640,05	19665,12667
640,247	20414,57243
640,445	20717,06348
640,642	21293,44462
640,84	21305,61939
641,037	21782,3989
641,234	21922,36729
641,432	22689,00929
641,629	22506,49411
641,826	22881,65435
642,024	23230,42309
642,221	23575,11945
642,418	23516,31906
642,615	24045,51982
642,813	24449,01959
643,01	25065,47784
643,207	24929,60539
643,404	25617,14613
643,602	25444,73689
643,799	25949,83393
643,996	26014,75528
644,193	26227,79522
644,39	26513,92118
644,587	26948,29108
644,784	26972,65246
644,981	27650,91111
645,178	27315,7932
645,375	28047,09778
645,572	28260,49589
645,769	28724,04861
645,966	28360,09853
646,163	29039,32834
646,36	29344,55724
646,557	29637,69334
646,754	29735,43165
646,951	29627,51303
647,148	30676,87954
647,345	30373,10574
647,542	30731,9414
647,738	31237,92644
647,935	31464,53501
648,132	31427,78166
648,329	31613,61439
648,526	32361,65597
648,722	31944,58892
648,919	32578,49612
649,116	32948,97046
649,312	33192,68926
649,509	33227,51593
649,706	33596,42
649,902	33258,24737
650,099	34166,72677
650,296	33811,74342
650,492	33928,67385
650,689	34302,22466
650,885	34275,53256
651,082	34008,69547
651,278	34359,72054
651,475	34369,98842
651,671	34429,54658
651,868	34156,46339
652,064	34474,73376
652,261	34257,05432
652,457	34335,07858
652,654	34415,16977
652,85	33727,65327
653,047	34536,35981
653,243	33545,16667
653,439	33584,1187
653,636	33664,0827
653,832	33137,38132
654,028	33495,96856
654,224	32423,01676
654,421	32926,44779
654,617	32273,71788
654,813	32241,00043
655,009	32124,46071
655,206	31911,89131
655,402	31084,86199
655,598	31474,74468
655,794	30760,49391
655,99	31411,44759
656,186	30395,52708
656,383	30387,37378
656,579	29509,43192
656,775	29727,28628
656,971	29218,38131
657,167	29497,21772
657,363	28764,72305
657,559	28337,7378
657,755	28252,36554
657,951	28193,42267
658,147	27510,75842
658,343	27311,73178
658,539	27293,45558
658,735	27124,92182
658,93	26191,27219
659,126	26556,54028
659,322	25673,94267
659,518	25659,7434
659,714	25515,72737
659,91	25312,90285
660,105	24919,46588
660,301	24684,23661
660,497	24309,11048
660,693	23834,65057
660,888	23372,35834
661,084	23581,20223
661,28	22830,95917
661,476	22871,51536
661,671	22066,38341
661,867	22074,49673
662,062	21553,15436
662,258	21762,11285
662,454	21327,93957
662,649	20897,71398
662,845	20609,47392
663,04	20339,44621
663,236	20034,83292
663,431	19776,86421
663,627	19293,25927
663,822	19307,48622
664,018	18638,58957
664,213	18494,17356
664,409	18280,5564
664,604	18184,91984
664,799	17547,73415
664,995	17409,23572
665,19	16993,58769
665,386	16826,44738
665,581	16500,20779
665,776	16434,9418
665,972	15728,858
666,167	15651,26628
666,362	14872,801
666,557	15257,04155
666,753	14811,46487
666,948	14322,60999
667,143	14238,71006
667,338	14236,66358
667,533	13847,71211
667,728	13841,56884
667,924	13069,08562
668,119	13177,74161
668,314	13034,2297
668,509	12642,48003
668,704	12474,21934
668,899	12227,90322
669,094	12063,6392
669,289	11876,73726
669,484	11570,59299
669,679	11387,65883
669,874	11083,33966
670,069	11091,56636
670,264	10696,56894
670,459	10651,29384
670,654	10406,34387
670,849	10616,30644
671,043	10122,17371
671,238	9883,21551
671,433	9765,76649
671,628	9602,95404
671,823	9712,18676
672,018	9551,42337
672,212	9493,70463
672,407	9289,59072
672,602	8998,78497
672,797	8920,39237
672,991	8757,39225
673,186	8645,95442
673,381	8437,48135
673,575	8398,25744
673,77	8507,66663
673,965	8195,91385
674,159	7958,40504
674,354	7956,33944
674,548	8069,93954
674,743	7793,14103
674,937	7646,44189
675,132	7716,69536
675,326	7307,49143
675,521	7462,51572
675,715	7286,81945
675,91	7243,40673
676,104	7109,02062
676,299	7036,65054
676,493	6956,00281
676,687	6993,22572
676,882	6747,11303
677,076	6858,80253
677,271	6602,31058
677,465	6418,17292
677,659	6395,4119
677,853	6362,30402
678,048	6306,43193
678,242	6173,9818
678,436	6227,79179
678,63	6310,57071
678,825	6045,65405
679,019	6076,70258
679,213	6196,74792
679,407	5929,73119
679,601	5697,84653
679,795	5855,20245
679,99	5579,81422
680,184	5652,29175
680,378	5730,97605
680,572	5507,3318
680,766	5482,47956
680,96	5513,54477
681,154	5612,94742
681,348	5370,63748
681,542	5490,76371
681,736	5441,05791
681,93	5248,42664
682,124	5173,85071
682,317	5177,99395
682,511	5109,62858
682,705	5105,48509
682,899	4962,52546
683,093	5186,28037
683,287	5035,04346
683,481	4906,57988
683,674	5032,97158
683,868	4902,43566
684,062	4773,95733
684,256	4902,43566
684,449	4755,30607
684,643	4825,76481
684,837	4628,88419
685,03	4730,43726
685,224	4645,46488
685,418	4521,10408
685,611	4614,3759
685,805	4645,46488
685,999	4604,01273
686,192	4525,24965
686,386	4554,26823
686,579	4409,16832
686,773	4545,97728
686,966	4392,58436
687,16	4477,57474
687,353	4450,62722
687,547	4390,51135
687,74	4388,43833
687,934	4407,09533
688,127	4386,36531
688,32	4411,2413
688,514	4421,60614
688,707	4367,70799
688,9	4384,29229
689,094	4469,28326
689,287	4386,36531
689,48	4355,26962
689,674	4386,36531
689,867	4369,78104
690,06	4270,27067
690,253	4361,48882
690,447	4272,34388
690,64	4444,40848
690,833	4274,41709
691,026	4266,12422
691,219	4307,58801
691,412	4392,58436
691,605	4365,63494
691,799	4429,89795
691,992	4114,76952
692,185	4255,75806
692,378	4274,41709
692,571	4438,1897
692,764	4317,95374
692,957	4293,07584
693,15	4309,66116
693,343	4388,43833
693,536	4342,83112
693,729	4324,17313
693,921	4286,85629
694,114	4253,68481
694,307	4214,29252
694,5	4295,14902
694,693	4297,22219
694,886	4328,31937
695,079	4307,58801
695,271	4293,07584
695,464	4324,17313
695,657	4313,80746
695,85	4237,09874
696,042	4483,79332
696,235	4357,34269
696,428	4483,79332
696,62	4516,9585
696,813	4452,70013
697,006	4465,1375
697,198	4512,8129
697,391	4415,38724
697,584	4490,01186
697,776	4344,90421
697,969	4496,23037
698,161	4670,33548
698,354	4574,99536
698,546	4458,91883
698,739	4560,48641
698,931	4496,23037
699,124	4620,59376
699,316	4630,95679
699,509	4506,59448
699,701	4647,53745
699,893	4657,90025
700,086	4633,02939
700,278	4744,94413
700,47	4732,50968
700,663	4757,37844
700,855	4684,84309
701,047	4962,52546
701,24	4778,10201
701,432	4664,11788
701,624	4854,776
701,816	4751,1613
702,008	4761,52319
702,201	5006,03681
702,393	4856,8482
702,585	4914,86829
702,777	4945,94928
702,969	5076,48024
703,161	4962,52546
703,353	4945,94928
703,546	4871,35349
703,738	4931,44492
703,93	4972,88546
704,122	5151,06263
704,314	4844,41494
704,506	5039,1872
704,698	5057,83387
704,89	4933,51698
705,082	4968,74147
705,273	5209,06774
705,465	5061,97754
705,657	5045,40279
705,849	4892,07503
706,041	4860,99259
706,233	5113,77205
706,425	5101,34158
706,616	5006,03681
706,808	4937,6611
707	5068,193
707,192	5012,25258
707,383	4977,02943
707,575	5066,12118
707,767	4989,46126
707,959	5093,05453
708,15	5010,18066
708,342	5130,34579
708,534	5061,97754
708,725	5057,83387
708,917	5026,75592
709,108	4919,01247
709,3	4871,35349
709,491	5018,46832
709,683	5177,99395
709,875	4906,57988
710,066	4993,60517
710,258	5088,91098
710,449	5018,46832
710,64	5026,75592
710,832	5012,25258
711,023	5134,48919
711,215	4999,82101
711,406	5076,48024
711,597	5088,91098
711,789	5184,20877
711,98	4877,56999
712,171	5190,42357
712,363	5209,06774
712,554	5049,5465
712,745	5064,04936
712,937	4869,28132
713,128	4896,21929
713,319	4881,71431
713,51	4887,93075
713,701	5107,55683
713,893	4898,29142
714,084	4852,70379
714,275	4850,63159
714,466	4885,85861
714,657	4887,93075
714,848	4776,02967
715,039	4811,25895
715,23	4684,84309
715,421	4612,30327
715,612	4724,21998
715,803	4606,08537
715,994	4720,07511
716,185	4668,26295
716,376	4649,61002
716,567	4767,74027
716,758	4645,46488
716,949	4500,37602
717,14	4585,35878
717,331	4340,75802
717,522	4369,78104
717,712	4450,62722
717,903	4440,26263
718,094	4278,56351
718,285	4384,29229
718,476	4295,14902
718,666	4523,17687
718,857	4235,02546
719,048	4311,73431
719,238	4212,21921
719,429	4208,07257
719,62	4255,75806
719,81	4307,58801
720,001	4183,19245
720,192	4096,10807
720,382	3878,37045
720,573	4065,00502
720,763	4015,23853
720,954	3857,63156
721,144	3897,03516
721,335	3946,80636
721,525	3861,77937
721,716	3928,14239
721,906	3753,932
722,097	3714,52393
722,287	3930,21618
722,478	3822,37467
722,668	3801,63485
722,858	3710,37565
723,049	3606,66404
723,239	3631,55559
723,429	3561,02826
723,62	3517,46531
723,81	3575,54891
724	3561,02826
724,191	3407,51414
724,381	3509,16744
724,571	3318,30156
724,761	3347,3482
724,951	3467,67727
725,142	3170,98355
725,332	3326,60067
725,522	3318,30156
725,712	3063,078
725,902	3090,05523
726,092	3040,25067
726,282	3007,04657
726,472	2915,73087
726,662	2990,44419
726,852	2838,93768
727,042	2905,35368
727,232	2859,69305
727,422	2872,14611
727,612	2942,71118
727,802	2986,29357
727,992	2828,55987
728,182	2892,90094
728,372	2579,46737
728,562	2710,24695
728,752	2641,74502
728,942	2724,77719
729,131	2610,60657
729,321	2475,66455
729,511	2523,41489
729,701	2469,43611
729,89	2394,69249
730,08	2523,41489
730,27	2357,31903
730,46	2297,10391
730,649	2336,55552
730,839	2311,63886
731,029	2272,18647
731,218	2280,49234
731,408	2218,19699
731,597	2211,96729
731,787	2124,74817
731,977	1964,83057
732,166	1960,67659
732,356	2062,44507
732,545	2054,13775
732,735	2064,52189
732,924	1952,36858
733,114	1958,59959
733,303	1854,74533
733,492	1971,06151
733,682	1981,44635
733,871	1896,28809
734,061	1827,74177
734,25	1896,28809
734,439	1742,57274
734,629	1798,66034
734,818	1784,11936
735,007	1717,64408
735,197	1680,25011
735,386	1682,32758
735,575	1669,86268
735,764	1665,70769
735,954	1628,31208
736,143	1509,88483
736,332	1644,9325
736,521	1509,88483
736,71	1532,74015
736,899	1501,5737
737,088	1528,58467
737,278	1576,37178
737,467	1449,62776
737,656	1462,09499
737,845	1387,28953
738,034	1447,54987
738,223	1395,60149
738,412	1366,50937
738,601	1401,83542
738,79	1376,8995
738,979	1360,27524
739,168	1472,48426
739,356	1358,1972
739,545	1345,72882
739,734	1275,07212
739,923	1408,06932
740,112	1302,08844
740,301	1216,88091
740,489	1202,33263
740,678	1225,19413
740,867	1279,22852
741,056	1117,11744
741,245	1117,11744
741,433	1146,21605
741,622	1162,84349
741,811	1123,35292
741,999	1191,94089
742,188	1133,74531
742,377	1189,86253
742,565	1119,19594
742,754	977,84898
742,942	1233,50728
743,131	1112,96043
743,319	927,95736
743,508	1079,7038
743,697	1009,03005
743,885	967,45508
744,073	1098,41078
744,262	1000,71519
744,45	1006,95134
744,639	996,55773
744,827	946,66699
745,016	1085,93949
745,204	855,1945
745,392	882,2213
745,581	1023,58091
745,769	1027,73826
745,957	950,82464
746,146	903,01066
746,334	927,95736
746,522	749,15949
746,71	954,98228
746,899	772,03071
747,087	867,66849
747,275	759,55556
747,463	799,05968
747,651	869,74748
747,84	803,21792
748,028	838,56228
748,216	722,1292
748,404	740,84255
748,592	859,35252
748,78	855,1945
748,968	811,53435
749,156	711,73274
749,344	699,25685
749,532	855,1945
749,72	828,16701
749,908	751,23871
750,096	742,92179
750,284	686,7808
750,472	782,42655
750,66	751,23871
750,847	742,92179
751,035	801,1388
751,223	759,55556
751,411	711,73274
751,599	705,49481
751,787	688,86015
751,974	755,39715
752,162	763,71396
752,35	668,06644
752,537	645,19286
752,725	703,41549
752,913	724,20847
753,101	703,41549
753,288	630,63667
753,476	713,81204
753,663	734,6048
753,851	632,71614
754,039	584,88725
754,226	653,51058
754,414	724,20847
754,601	618,15976
754,789	541,21536
754,976	589,04637
755,164	584,88725
755,351	624,39823
755,539	589,04637
755,726	537,05603
755,913	661,82824
756,101	543,29502
756,288	607,76222
756,476	645,19286
756,663	526,65763
756,85	701,33617
757,037	551,61361
757,225	557,8525
757,412	576,56894
757,599	547,45432
757,787	555,77287
757,974	589,04637
758,161	503,78075
758,348	638,95452
758,535	441,3865
758,722	591,12593
758,91	545,37467
759,097	439,30662
759,284	541,21536
759,471	574,48936
759,658	549,53396
759,845	497,54151
760,032	570,33017
760,219	578,64853
760,406	620,23926
760,593	466,34469
760,78	524,57793
760,967	568,25057
761,154	605,6827
761,341	593,20548
761,528	541,21536
761,715	562,01174
761,901	539,1357
762,088	520,41853
762,275	551,61361
762,462	449,70597
762,649	480,90333
762,835	462,18504
763,022	551,61361
763,209	464,26487
763,396	482,98312
763,582	520,41853
763,769	514,1794
763,956	555,77287
764,142	462,18504
764,329	545,37467
764,516	493,38199
764,702	470,50432
764,889	528,73732
765,075	530,817
765,262	455,94552
765,448	493,38199
765,635	501,70101
765,821	468,42451
766,008	537,05603
766,194	528,73732
766,381	530,817
766,567	522,49824
766,754	401,86803
766,94	364,42795
767,127	426,82726
767,313	391,46816
767,499	512,09968
767,686	464,26487
767,872	482,98312
768,058	555,77287
768,244	491,30223
768,431	510,01995
768,617	537,05603
768,803	391,46816
768,989	499,62126
769,176	470,50432
769,362	393,54814
769,548	414,34773
769,734	428,90716
769,92	437,22674
770,106	505,86049
770,292	455,94552
770,478	412,26779
770,664	468,42451
770,851	464,26487
771,037	524,57793
771,223	478,82354
771,409	609,84174
771,594	451,78583
771,78	387,30818
771,966	499,62126
772,152	343,62726
772,338	414,34773
772,524	518,33883
772,71	468,42451
772,896	433,06696
773,082	468,42451
773,267	458,02537
773,453	376,90814
773,639	406,02795
773,825	524,57793
774,011	364,42795
774,196	441,3865
774,382	451,78583
774,568	383,14818
774,753	470,50432
774,939	399,78807
775,125	503,78075
775,31	356,10773
775,496	378,98816
775,681	485,0629
775,867	341,54716
776,053	418,50759
776,238	433,06696
776,424	401,86803
776,609	368,58803
776,795	416,42766
776,98	339,46706
777,166	341,54716
777,351	426,82726
777,536	335,30685
777,722	378,98816
777,907	358,18779
778,093	403,94799
778,278	364,42795
778,463	460,1052
778,649	480,90333
778,834	337,38696
779,019	401,86803
779,204	462,18504
779,39	351,94759
779,575	420,58751
779,76	331,14662
779,945	347,78743
780,13	397,7081
780,316	393,54814
780,501	401,86803
780,686	341,54716
780,871	358,18779
781,056	329,06649
781,241	426,82726
781,426	310,34518
781,611	354,02766
781,796	262,50008
781,981	326,98637
782,166	389,38817
782,351	326,98637
782,536	335,30685
782,721	260,41981
782,906	326,98637
783,091	358,18779
783,276	335,30685
783,461	306,18483
783,646	314,5055
783,83	393,54814
784,015	312,42534
784,2	326,98637
784,385	345,70735
784,57	354,02766
784,754	306,18483
784,939	293,70369
785,124	281,22238
785,308	335,30685
785,493	277,0619
785,678	358,18779
785,862	372,7481
786,047	391,46816
786,232	360,26785
786,416	339,46706
786,601	291,62348
786,785	345,70735
786,97	333,22674
787,154	302,02447
787,339	266,66063
787,523	287,46305
787,708	281,22238
787,892	383,14818
788,077	318,66581
788,261	320,74596
788,446	322,8261
788,63	341,54716
788,814	295,78389
788,999	256,25924
789,183	293,70369
789,367	295,78389
789,552	349,86751
789,736	331,14662
789,92	254,17894
790,104	302,02447
790,289	293,70369
790,473	216,73286
790,657	333,22674
790,841	247,93804
791,025	272,9014
791,21	293,70369
791,394	312,42534
791,578	204,25049
791,762	279,14214
791,946	283,30261
792,13	256,25924
792,314	285,38283
792,498	281,22238
792,682	243,77741
792,866	308,26501
793,05	241,69709
793,234	302,02447
793,418	250,01834
793,602	289,54327
793,786	254,17894
793,97	291,62348
794,153	252,09865
794,337	254,17894
794,521	345,70735
794,705	351,94759
794,889	270,82115
795,073	256,25924
795,256	252,09865
795,44	268,74089
795,624	252,09865
795,807	397,7081
795,991	270,82115
796,175	285,38283
796,358	181,36569
796,542	198,00924
796,726	254,17894
796,909	218,81324
797,093	198,00924
797,277	225,05435
797,46	258,33952
797,644	222,97398
797,827	264,58036
798,011	175,12428
798,194	279,14214
798,378	208,4113
798,561	170,96332
798,744	266,66063
798,928	141,83602
799,111	260,41981
799,295	233,37576
799,478	206,3309
799,661	154,31926
799,845	162,64133
800,028	256,25924
800,211	250,01834
800,395	200,08966
800,578	277,0619
800,761	272,9014
800,944	237,53643
801,127	158,48031
801,311	179,28523
801,494	102,30458
801,677	216,73286
801,86	281,22238
802,043	225,05435
802,226	227,13471
802,409	173,0438
802,593	237,53643
802,776	145,99712
802,959	200,08966
803,142	198,00924
803,325	166,80233
803,508	198,00924
803,691	181,36569
803,874	145,99712
804,056	216,73286
804,239	179,28523
804,422	195,92881
804,605	187,60706
804,788	181,36569
804,971	145,99712
805,154	193,84838
805,336	202,17008
805,519	239,61676
805,702	141,83602
805,885	210,4917
806,068	168,88283
806,25	185,52661
806,433	233,37576
806,616	121,03022
806,798	156,39979
806,981	164,72183
807,164	127,27201
807,346	187,60706
807,529	139,75546
807,711	233,37576
807,894	145,99712
808,076	123,11082
808,259	60,69062
808,442	183,44615
808,624	220,89361
808,806	168,88283
808,989	125,19142
809,171	131,43318
809,354	204,25049
809,536	135,59433
809,719	127,27201
809,901	125,19142
810,083	145,99712
810,266	210,4917
810,448	135,59433
810,63	156,39979
810,813	129,3526
810,995	139,75546
811,177	106,46587
811,359	110,62714
811,542	141,83602
811,724	69,01357
811,906	150,1582
812,088	116,869
812,27	160,56082
812,452	104,38523
812,634	118,94962
812,817	125,19142
812,999	116,869
813,181	168,88283
813,363	181,36569
813,545	177,20476
813,727	112,70777
813,909	121,03022
814,091	173,0438
814,273	116,869
814,455	102,30458
814,637	185,52661
814,818	89,8206
815	195,92881
815,182	116,869
815,364	173,0438
815,546	189,6875
815,728	162,64133
815,909	69,01357
816,091	141,83602
816,273	108,54651
816,455	104,38523
816,636	135,59433
816,818	152,23874
817	79,41715
817,182	50,28682
817,363	56,52911
817,545	60,69062
817,726	114,78839
817,908	143,91657
818,09	154,31926
818,271	-37,1101
818,453	89,8206
818,634	37,80209
818,816	123,11082
818,997	106,46587
819,179	44,04447
819,36	125,19142
819,542	135,59433
819,723	195,92881
819,905	104,38523
820,086	81,49785
820,267	79,41715
820,449	131,43318
820,63	110,62714
820,811	27,39801
820,993	50,28682
821,174	152,23874
821,355	104,38523
821,536	114,78839
821,718	106,46587
821,899	87,73992
822,08	39,88289
822,261	60,69062
822,442	4,50859
822,624	91,90128
822,805	118,94962
822,986	83,57854
823,167	98,14328
823,348	64,8521
823,529	129,3526
823,71	64,8521
823,891	104,38523
824,072	54,44835
824,253	141,83602
824,434	110,62714
824,615	54,44835
824,796	89,8206
824,977	148,07766
825,158	116,869
825,339	114,78839
825,52	81,49785
825,7	71,0943
825,881	108,54651
826,062	75,25573
826,243	37,80209
826,424	33,64047
826,604	48,20604
826,785	58,60987
826,966	-37,1101
827,147	131,43318
827,327	4,50859
827,508	87,73992
827,689	91,90128
827,869	52,36759
828,05	133,51376
828,231	56,52911
828,411	31,55966
828,592	133,51376
828,772	81,49785
828,953	37,80209
829,133	21,1555
829,314	25,31718
829,494	75,25573
829,675	71,0943
829,855	73,17502
830,036	73,17502
830,216	141,83602
830,396	75,25573
830,577	89,8206
830,757	37,80209
830,938	-3,81498
831,118	33,64047
831,298	71,0943
831,479	41,96368
831,659	73,17502
831,839	89,8206
832,019	145,99712
832,199	73,17502
832,38	62,77136
832,56	8,67035
832,74	-16,3005
832,92	77,33644
833,1	37,80209
833,28	73,17502
833,461	112,70777
833,641	-41,27208
833,821	98,14328
834,001	106,46587
834,181	46,12526
834,361	98,14328
834,541	166,80233
834,721	12,83209
834,901	-28,7862
835,081	23,23634
835,261	50,28682
835,44	62,77136
835,62	114,78839
835,8	27,39801
835,98	71,0943
836,16	66,93284
836,34	60,69062
836,52	79,41715
836,699	23,23634
836,879	89,8206
837,059	-45,43408
837,239	48,20604
837,418	31,55966
837,598	62,77136
837,778	41,96368
837,957	44,04447
838,137	71,0943
838,317	50,28682
838,496	81,49785
838,676	100,22393
838,855	93,98195
839,035	123,11082
839,214	21,1555
839,394	-16,3005
839,573	41,96368
839,753	35,72128
839,932	8,67035
840,112	73,17502
840,291	91,90128
840,471	58,60987
840,65	89,8206
840,829	96,06262
841,009	41,96368
841,188	100,22393
841,367	83,57854
841,547	0,34682
841,726	81,49785
841,905	29,47883
842,085	8,67035
842,264	83,57854
842,443	12,83209
842,622	29,47883
842,801	2,42771
842,981	66,93284
843,16	29,47883
843,339	93,98195
843,518	31,55966
843,697	-10,05772
843,876	33,64047
844,055	-51,67712
844,234	10,75122
844,413	50,28682
844,592	141,83602
844,771	112,70777
844,95	133,51376
845,129	6,58947
845,308	62,77136
845,487	-16,3005
845,666	23,23634
845,845	-62,0823
846,024	16,9938
846,202	-10,05772
846,381	50,28682
846,56	46,12526
846,739	102,30458
846,918	29,47883
847,096	41,96368
847,275	-16,3005
847,454	81,49785
847,633	27,39801
847,811	110,62714
847,99	25,31718
848,169	29,47883
848,347	41,96368
848,526	-18,38144
848,704	56,52911
848,883	33,64047
849,062	31,55966
849,24	16,9938
849,419	16,9938
849,597	50,28682
849,776	125,19142
849,954	58,60987
850,133	83,57854
850,311	87,73992
850,49	71,0943
850,668	21,1555
850,846	4,50859
851,025	62,77136
851,203	85,65924
851,381	52,36759
851,56	27,39801
851,738	85,65924
851,916	31,55966
852,095	-1,73408
852,273	110,62714
852,451	6,58947
852,629	10,75122
852,807	25,31718
852,986	33,64047
853,164	-10,05772
853,342	100,22393
853,52	31,55966
853,698	-7,9768
853,876	58,60987
854,054	58,60987
854,232	62,77136
854,41	79,41715
854,588	37,80209
854,766	-16,3005
854,944	41,96368
855,122	-26,70523
855,3	148,07766
855,478	-1,73408
855,656	-7,9768
855,834	12,83209
856,012	71,0943
856,19	-82,89303
856,368	-24,62428
856,545	-12,13864
856,723	35,72128
856,901	64,8521
857,079	71,0943
857,256	-16,3005
857,434	123,11082
857,612	39,88289
857,79	83,57854
857,967	106,46587
858,145	87,73992
858,323	37,80209
858,5	46,12526
858,678	-20,46238
858,855	29,47883
859,033	-30,86716
859,211	-76,64975
859,388	-10,05772
859,566	14,91295
859,743	60,69062
859,921	10,75122
860,098	91,90128
860,276	37,80209
860,453	-24,62428
860,63	2,42771
860,808	-43,35308
860,985	41,96368
861,162	-64,16334
861,34	8,67035
861,517	-39,19109
861,694	66,93284
861,872	-24,62428
862,049	52,36759
862,226	-3,81498
862,403	52,36759
862,581	8,67035
862,758	75,25573
862,935	14,91295
863,112	60,69062
863,289	35,72128
863,467	87,73992
863,644	37,80209
863,821	96,06262
863,998	6,58947
864,175	-60,00125
864,352	35,72128
864,529	10,75122
864,706	-5,89589
864,883	83,57854
865,06	-49,5961
865,237	6,58947
865,414	-30,86716
865,591	35,72128
865,768	16,9938
865,944	83,57854
866,121	-12,13864
866,298	102,30458
866,475	-30,86716
866,652	-37,1101
866,829	46,12526
867,005	27,39801
867,182	2,42771
867,359	-39,19109
867,536	-35,02912
867,712	-18,38144
867,889	27,39801
868,066	52,36759
868,242	56,52911
868,419	79,41715
868,596	12,83209
868,772	10,75122
868,949	93,98195
869,125	12,83209
869,302	-14,21957
869,478	10,75122
869,655	-1,73408
869,831	-22,54332
870,008	-10,05772
870,184	110,62714
870,361	-5,89589
870,537	0,34682
870,714	31,55966
870,89	33,64047
871,066	114,78839
871,243	64,8521
871,419	62,77136
871,595	62,77136
871,772	16,9938
871,948	-45,43408
872,124	33,64047
872,3	48,20604
872,477	39,88289
872,653	54,44835
872,829	64,8521
873,005	25,31718
873,181	16,9938
873,357	25,31718
873,533	10,75122
873,71	41,96368
873,886	62,77136
874,062	21,1555
874,238	16,9938
874,414	98,14328
874,59	4,50859
874,766	85,65924
874,942	89,8206
875,118	16,9938
875,294	71,0943
875,47	27,39801
875,645	6,58947
875,821	25,31718
875,997	54,44835
876,173	48,20604
876,349	19,07466
876,525	29,47883
876,7	41,96368
876,876	-26,70523
877,052	29,47883
877,228	31,55966
877,403	-5,89589
877,579	-99,54198
877,755	71,0943
877,931	48,20604
878,106	75,25573
878,282	-14,21957
878,457	8,67035
878,633	35,72128
878,809	116,869
878,984	12,83209
879,16	56,52911
879,335	87,73992
879,511	31,55966
879,686	37,80209
879,862	-26,70523
880,037	83,57854
880,213	2,42771
880,388	-41,27208
880,563	-1,73408
880,739	46,12526
880,914	8,67035
881,089	73,17502
881,265	-28,7862
881,44	46,12526
881,615	-5,89589
881,791	-28,7862
881,966	8,67035
882,141	-18,38144
882,316	39,88289
882,492	52,36759
882,667	2,42771
882,842	37,80209
883,017	54,44835
883,192	71,0943
883,367	-30,86716
883,542	-5,89589
883,718	19,07466
883,893	14,91295
884,068	39,88289
884,243	31,55966
884,418	73,17502
884,593	48,20604
884,768	16,9938
884,943	33,64047
885,117	-16,3005
885,292	21,1555
885,467	62,77136
885,642	58,60987
885,817	37,80209
885,992	71,0943
886,167	2,42771
886,342	19,07466
886,516	37,80209
886,691	-39,19109
886,866	-101,62313
887,041	56,52911
887,215	39,88289
887,39	56,52911
887,565	106,46587
887,739	-3,81498
887,914	-12,13864
888,089	-3,81498
888,263	50,28682
888,438	16,9938
888,612	-26,70523
888,787	48,20604
888,962	48,20604
889,136	79,41715
889,311	46,12526
889,485	33,64047
889,659	8,67035
889,834	66,93284
890,008	27,39801
890,183	64,8521
890,357	-16,3005
890,532	8,67035
890,706	46,12526
890,88	127,27201
891,055	-28,7862
891,229	-57,92021
891,403	0,34682
891,577	77,33644
891,752	2,42771
891,926	2,42771
892,1	37,80209
892,274	37,80209
892,449	44,04447
892,623	-18,38144
892,797	-26,70523
892,971	52,36759
893,145	35,72128
893,319	39,88289
893,493	54,44835
893,667	-28,7862
893,841	-22,54332
894,015	14,91295
894,189	8,67035
894,363	-55,83918
894,537	-39,19109
894,711	52,36759
894,885	37,80209
895,059	4,50859
895,233	-5,89589
895,407	56,52911
895,581	35,72128
895,755	44,04447
895,928	6,58947
896,102	23,23634
896,276	50,28682
896,45	60,69062
896,623	10,75122
896,797	50,28682
896,971	62,77136
897,145	8,67035
897,318	23,23634
897,492	56,52911
897,666	29,47883
897,839	-22,54332
898,013	4,50859
898,186	58,60987
898,36	37,80209
898,534	-30,86716
898,707	14,91295
898,881	39,88289
899,054	50,28682
899,228	-14,21957
899,401	6,58947
899,574	-24,62428
899,748	8,67035
899,921	-45,43408
900,095	10,75122
900,268	37,80209
900,441	21,1555
900,615	66,93284
900,788	39,88289
900,961	35,72128
901,135	6,58947
901,308	-30,86716
901,481	-45,43408
901,654	96,06262
901,828	-5,89589
902,001	37,80209
902,174	14,91295
902,347	56,52911
902,52	48,20604
902,693	118,94962
902,866	10,75122
903,04	-12,13864
903,213	16,9938
903,386	66,93284
903,559	10,75122
903,732	-47,51509
903,905	-47,51509
904,078	-12,13864
904,251	-82,89303
904,424	-55,83918
904,596	19,07466
904,769	23,23634
904,942	-43,35308
905,115	-37,1101
905,288	6,58947
905,461	2,42771
905,634	66,93284
905,806	-16,3005
905,979	-64,16334
906,152	-3,81498
906,325	2,42771
906,497	46,12526
906,67	12,83209
906,843	-14,21957
907,015	-64,16334
907,188	27,39801
907,361	-18,38144
907,533	-22,54332
907,706	10,75122
907,878	-18,38144
908,051	2,42771
908,224	-24,62428
908,396	56,52911
908,569	-35,02912
908,741	-12,13864
908,914	48,20604
909,086	-66,2444
909,258	46,12526
909,431	-28,7862
909,603	-43,35308
909,776	33,64047
909,948	-3,81498
910,12	-14,21957
910,293	-18,38144
910,465	50,28682
910,637	-32,94814
910,81	6,58947
910,982	-35,02912
911,154	29,47883
911,326	8,67035
911,498	0,34682
911,671	75,25573
911,843	66,93284
912,015	60,69062
912,187	16,9938
912,359	-70,40653
912,531	-20,46238
912,703	25,31718
912,875	-1,73408
913,047	-32,94814
913,219	-55,83918
913,391	31,55966
913,563	71,0943
913,735	-41,27208
913,907	12,83209
914,079	6,58947
914,251	-62,0823
914,423	-30,86716
914,595	-16,3005
914,767	31,55966
914,939	71,0943
915,11	81,49785
915,282	23,23634
915,454	96,06262
915,626	-16,3005
915,797	52,36759
915,969	16,9938
916,141	29,47883
916,313	23,23634
916,484	83,57854
916,656	-97,46084
916,828	62,77136
916,999	-14,21957
917,171	8,67035
917,342	-95,37971
917,514	-14,21957
917,685	27,39801
917,857	-39,19109
918,028	87,73992
918,2	23,23634
918,371	-1,73408
918,543	60,69062
918,714	-1,73408
918,886	-1,73408
919,057	-7,9768
919,229	75,25573
919,4	-76,64975
919,571	46,12526
919,743	37,80209
919,914	-45,43408
920,085	4,50859
920,256	58,60987
920,428	23,23634
920,599	52,36759
920,77	35,72128
920,941	60,69062
921,113	16,9938
921,284	41,96368
921,455	-22,54332
921,626	39,88289
921,797	14,91295
921,968	37,80209
922,139	-78,73084
922,31	-26,70523
922,481	-24,62428
922,652	0,34682
922,823	-5,89589
922,994	6,58947
923,165	-7,9768
923,336	12,83209
923,507	37,80209
923,678	-39,19109
923,849	50,28682
924,02	54,44835
924,191	-22,54332
924,362	6,58947
924,532	10,75122
924,703	-20,46238
924,874	-47,51509
925,045	35,72128
925,215	8,67035
925,386	56,52911
925,557	-10,05772
925,728	14,91295
925,898	-89,13635
926,069	16,9938
926,24	37,80209
926,41	-3,81498
926,581	21,1555
926,751	-10,05772
926,922	-7,9768
927,092	73,17502
927,263	60,69062
927,433	-5,89589
927,604	-20,46238
927,774	16,9938
927,945	-16,3005
928,115	-43,35308
928,286	6,58947
928,456	-84,97413
928,627	12,83209
928,797	33,64047
928,967	37,80209
929,138	21,1555
929,308	21,1555
929,478	-26,70523
929,648	62,77136
929,819	-18,38144
929,989	10,75122
930,159	6,58947
930,329	-20,46238
930,5	110,62714
930,67	-37,1101
930,84	19,07466
931,01	-45,43408
931,18	-72,4876
931,35	52,36759
931,52	-30,86716
931,69	-22,54332
931,86	-39,19109
932,03	-43,35308
932,2	123,11082
932,37	35,72128
932,54	56,52911
932,71	10,75122
932,88	33,64047
933,05	-12,13864
933,22	19,07466
933,39	16,9938
933,56	143,91657
933,73	-45,43408
933,899	77,33644
934,069	-55,83918
934,239	-16,3005
934,409	-55,83918
934,578	39,88289
934,748	6,58947
934,918	23,23634
935,088	25,31718
935,257	-26,70523
935,427	16,9938
935,596	41,96368
935,766	37,80209
935,936	54,44835
936,105	-16,3005
936,275	-57,92021
936,444	4,50859
936,614	-14,21957
936,783	2,42771
936,953	25,31718
937,122	-24,62428
937,292	23,23634
937,461	39,88289
937,631	85,65924
937,8	16,9938
937,969	-37,1101
938,139	-66,2444
938,308	37,80209
938,477	-26,70523
938,647	54,44835
938,816	-134,92212
938,985	-7,9768
939,155	48,20604
939,324	-24,62428
939,493	-55,83918
939,662	46,12526
939,831	-7,9768
940,001	12,83209
940,17	25,31718
940,339	-55,83918
940,508	2,42771
940,677	12,83209
940,846	-30,86716
941,015	-3,81498
941,184	31,55966
941,353	35,72128
941,522	48,20604
941,691	-14,21957
941,86	-47,51509
942,029	54,44835
942,198	52,36759
942,367	29,47883
942,536	10,75122
942,705	6,58947
942,873	-55,83918
943,042	-35,02912
943,211	-5,89589
943,38	19,07466
943,549	-7,9768
943,717	48,20604
943,886	46,12526
944,055	27,39801
944,224	-1,73408
944,392	4,50859
944,561	-16,3005
944,73	-26,70523
944,898	69,01357
945,067	33,64047
945,235	-72,4876
945,404	46,12526
945,572	-7,9768
945,741	27,39801
945,91	8,67035
946,078	-26,70523
946,247	-10,05772
946,415	-62,0823
946,583	6,58947
946,752	-3,81498
946,92	12,83209
947,089	8,67035
947,257	64,8521
947,425	96,06262
947,594	6,58947
947,762	19,07466
947,93	58,60987
948,099	-74,56867
948,267	2,42771
948,435	-7,9768
948,603	-10,05772
948,772	33,64047
948,94	4,50859
949,108	-1,73408
949,276	-32,94814
949,444	-16,3005
949,612	37,80209
949,78	-26,70523
949,948	-3,81498
950,116	-12,13864
950,285	41,96368
950,453	110,62714
950,621	33,64047
950,789	31,55966
950,957	-5,89589
951,124	-41,27208
951,292	14,91295
951,46	37,80209
951,628	-3,81498
951,796	-18,38144
951,964	8,67035
952,132	33,64047
952,3	56,52911
952,467	-5,89589
952,635	29,47883
952,803	-116,19127
952,971	50,28682
953,138	62,77136
953,306	35,72128
953,474	73,17502
953,641	4,50859
953,809	50,28682
953,977	-35,02912
954,144	23,23634
954,312	46,12526
954,48	-10,05772
954,647	58,60987
954,815	41,96368
954,982	0,34682
955,15	-18,38144
955,317	-3,81498
955,485	16,9938
955,652	4,50859
955,82	12,83209
955,987	-16,3005
956,154	19,07466
956,322	46,12526
956,489	-1,73408
956,656	-5,89589
956,824	-24,62428
956,991	-97,46084
957,158	-76,64975
957,326	-16,3005
957,493	69,01357
957,66	58,60987
957,827	-5,89589
957,994	-37,1101
958,162	-16,3005
958,329	-10,05772
958,496	46,12526
958,663	23,23634
958,83	56,52911
958,997	-20,46238
959,164	-91,21746
959,331	-5,89589
959,498	33,64047
959,665	33,64047
959,832	-18,38144
959,999	-16,3005
960,166	56,52911
960,333	-99,54198
960,5	21,1555
960,667	-20,46238
960,834	21,1555
961,001	33,64047
961,168	8,67035
961,334	73,17502
961,501	69,01357
961,668	56,52911
961,835	-16,3005
962,002	-3,81498
962,168	16,9938
962,335	81,49785
962,502	-24,62428
962,668	-49,5961
962,835	14,91295
963,002	-145,32834
963,168	37,80209
963,335	-32,94814
963,502	4,50859
963,668	-24,62428
963,835	14,91295
964,001	-35,02912
964,168	37,80209
964,334	2,42771
964,501	-3,81498
964,667	-20,46238
964,834	-3,81498
965	-39,19109
965,166	-47,51509
965,333	-26,70523
965,499	-10,05772
965,665	89,8206
965,832	81,49785
965,998	-60,00125
966,164	-53,75815
966,331	25,31718
966,497	16,9938
966,663	-78,73084
966,829	-12,13864
966,996	-43,35308
967,162	-24,62428
967,328	4,50859
967,494	-26,70523
967,66	-14,21957
967,826	-12,13864
967,992	29,47883
968,158	-5,89589
968,324	-16,3005
968,491	6,58947
968,657	31,55966
968,823	6,58947
968,988	27,39801
969,154	-70,40653
969,32	-20,46238
969,486	16,9938
969,652	0,34682
969,818	-30,86716
969,984	31,55966
970,15	14,91295
970,316	-41,27208
970,481	71,0943
970,647	23,23634
970,813	-12,13864
970,979	-49,5961
971,144	50,28682
971,31	77,33644
971,476	16,9938
971,642	-14,21957
971,807	-7,9768
971,973	-12,13864
972,138	10,75122
972,304	-112,02892
972,47	-10,05772
972,635	37,80209
972,801	-14,21957
972,966	27,39801
973,132	-47,51509
973,297	4,50859
973,463	-18,38144
973,628	73,17502
973,794	23,23634
973,959	69,01357
974,125	10,75122
974,29	-16,3005
974,455	12,83209
974,621	21,1555
974,786	-51,67712
974,951	56,52911
975,117	-16,3005
975,282	-47,51509
975,447	52,36759
975,612	21,1555
975,778	-24,62428
975,943	-62,0823
976,108	69,01357
976,273	-10,05772
976,438	114,78839
976,603	-3,81498
976,768	14,91295
976,934	-10,05772
977,099	29,47883
977,264	12,83209
977,429	-55,83918
977,594	4,50859
977,759	-12,13864
977,924	-60,00125
978,089	56,52911
978,254	-60,00125
978,418	-1,73408
978,583	-39,19109
978,748	-3,81498
978,913	-62,0823
979,078	-28,7862
979,243	-28,7862
979,408	-14,21957
979,572	-51,67712
979,737	81,49785
979,902	-1,73408
980,067	35,72128
980,231	-26,70523
980,396	-41,27208
980,561	66,93284
980,725	-82,89303
980,89	-55,83918
981,055	-37,1101
981,219	-7,9768
981,384	66,93284
981,548	-20,46238
981,713	-5,89589
981,877	-22,54332
982,042	0,34682
982,206	21,1555
982,371	-5,89589
982,535	2,42771
982,7	23,23634
982,864	-7,9768
983,029	-18,38144
983,193	-47,51509
983,357	-55,83918
983,522	71,0943
983,686	-12,13864
983,85	66,93284
984,015	-84,97413
984,179	10,75122
984,343	23,23634
984,507	-14,21957
984,672	-20,46238
984,836	66,93284
985	27,39801
985,164	-32,94814
985,328	-5,89589
985,492	-14,21957
985,656	21,1555
985,821	31,55966
985,985	-124,51604
986,149	-55,83918
986,313	102,30458
986,477	-55,83918
986,641	-12,13864
986,805	-3,81498
986,969	10,75122
987,133	10,75122
987,296	39,88289
987,46	44,04447
987,624	-22,54332
987,788	-26,70523
987,952	14,91295
988,116	-37,1101
988,28	14,91295
988,443	-76,64975
988,607	33,64047
988,771	62,77136
988,935	19,07466
989,098	58,60987
989,262	29,47883
989,426	46,12526
989,589	-5,89589
989,753	-43,35308
989,917	-20,46238
990,08	19,07466
990,244	73,17502
990,407	64,8521
990,571	41,96368
990,734	-1,73408
990,898	2,42771
991,061	8,67035
991,225	58,60987
991,388	25,31718
991,552	54,44835
991,715	-35,02912
991,878	33,64047
992,042	-24,62428
992,205	12,83209
992,369	-64,16334
992,532	-20,46238
992,695	-99,54198
992,858	8,67035
993,022	-51,67712
993,185	2,42771
993,348	19,07466
993,511	25,31718
993,675	-24,62428
993,838	25,31718
994,001	-30,86716
994,164	-55,83918
994,327	-24,62428
994,49	-78,73084
994,653	-7,9768
994,816	31,55966
994,979	10,75122
995,142	-70,40653
995,305	-101,62313
995,468	33,64047
995,631	-78,73084
995,794	52,36759
995,957	27,39801
996,12	-62,0823
996,283	-20,46238
996,446	19,07466
996,609	-64,16334
996,772	10,75122
996,934	-39,19109
997,097	-43,35308
997,26	-30,86716
997,423	-97,46084
997,585	27,39801
997,748	19,07466
997,911	33,64047
998,074	64,8521
998,236	-14,21957
998,399	-35,02912
998,561	39,88289
998,724	-3,81498
998,887	-74,56867
999,049	52,36759
999,212	-57,92021
999,374	-45,43408
999,537	27,39801
999,699	-7,9768
999,862	73,17502
1000,024	8,67035
1000,187	73,17502
1000,349	-1,73408
1000,512	25,31718
1000,674	54,44835
1000,836	-57,92021
1000,999	-7,9768
1001,161	54,44835
1001,323	0,34682
1001,486	27,39801
1001,648	-3,81498
1001,81	-41,27208
1001,972	23,23634
1002,134	0,34682
1002,297	6,58947
1002,459	-18,38144
1002,621	-28,7862
1002,783	-20,46238
1002,945	-3,81498
1003,107	-49,5961
1003,269	83,57854
1003,432	27,39801
1003,594	27,39801
1003,756	-1,73408
1003,918	-32,94814
1004,08	33,64047
1004,242	-14,21957
1004,404	-1,73408
1004,565	50,28682
1004,727	-41,27208
1004,889	-7,9768
1005,051	10,75122
1005,213	-7,9768
1005,375	125,19142
1005,537	-12,13864
1005,698	-45,43408
1005,86	-60,00125
1006,022	66,93284
1006,184	-3,81498
1006,345	-30,86716
1006,507	-14,21957
1006,669	4,50859
1006,831	46,12526
1006,992	23,23634
1007,154	-5,89589
1007,315	-18,38144
1007,477	-5,89589
1007,639	19,07466
1007,8	46,12526
1007,962	-109,94775
1008,123	-32,94814
1008,285	-22,54332
1008,446	6,58947
1008,608	-39,19109
1008,769	8,67035
1008,931	66,93284
1009,092	48,20604
1009,253	-20,46238
1009,415	-43,35308
1009,576	-37,1101
1009,737	83,57854
1009,899	-12,13864
1010,06	27,39801
1010,221	16,9938
1010,382	-26,70523
1010,544	-20,46238
1010,705	-51,67712
1010,866	-30,86716
1011,027	-45,43408
1011,188	-24,62428
1011,35	60,69062
1011,511	-78,73084
1011,672	27,39801
1011,833	-60,00125
1011,994	-7,9768
1012,155	-14,21957
1012,316	-5,89589
1012,477	-18,38144
1012,638	12,83209
1012,799	12,83209
1012,96	-10,05772
1013,121	19,07466
1013,282	-62,0823
1013,443	19,07466
1013,604	64,8521
1013,765	-16,3005
1013,925	-64,16334
1014,086	-26,70523
1014,247	31,55966
1014,408	21,1555
1014,569	-7,9768
1014,729	-26,70523
1014,89	91,90128
1015,051	-49,5961
1015,211	77,33644
1015,372	-62,0823
1015,533	4,50859
1015,693	-49,5961
1015,854	4,50859
1016,015	48,20604
1016,175	6,58947
1016,336	14,91295
1016,496	33,64047
1016,657	-60,00125
1016,817	33,64047
1016,978	4,50859
1017,138	79,41715
1017,299	-20,46238
1017,459	41,96368
1017,62	-49,5961
1017,78	-26,70523
1017,94	-60,00125
1018,101	-18,38144
1018,261	16,9938
1018,421	-28,7862
1018,582	33,64047
1018,742	12,83209
1018,902	29,47883
1019,062	12,83209
1019,223	2,42771
1019,383	-74,56867
1019,543	44,04447
1019,703	-51,67712
1019,863	-80,81193
1020,023	31,55966
1020,184	33,64047
1020,344	6,58947
1020,504	21,1555
1020,664	-47,51509
1020,824	-53,75815
1020,984	-20,46238
1021,144	12,83209
1021,304	10,75122
1021,464	-35,02912
1021,624	23,23634
1021,784	56,52911
1021,943	52,36759
1022,103	-51,67712
1022,263	-78,73084
1022,423	41,96368
1022,583	4,50859
1022,743	-60,00125
1022,902	21,1555
1023,062	-26,70523
1023,222	12,83209
1023,382	52,36759
1023,541	-28,7862
1023,701	56,52911
1023,861	54,44835
1024,02	52,36759
1024,18	-14,21957
1024,34	27,39801
1024,499	-24,62428
1024,659	89,8206
1024,818	-1,73408
1024,978	-5,89589
1025,137	35,72128
1025,297	29,47883
1025,456	4,50859
1025,616	-41,27208
1025,775	10,75122
1025,935	35,72128
1026,094	19,07466
1026,254	-14,21957
1026,413	-3,81498
1026,572	69,01357
1026,732	27,39801
1026,891	56,52911
1027,05	27,39801
1027,21	2,42771
1027,369	-51,67712
1027,528	-26,70523
1027,687	37,80209
1027,846	73,17502
1028,006	-5,89589
1028,165	21,1555
1028,324	37,80209
1028,483	-39,19109
1028,642	-53,75815
1028,801	-47,51509
1028,96	39,88289
1029,119	35,72128
1029,278	56,52911
1029,437	-84,97413
1029,596	19,07466
1029,755	-7,9768
1029,914	48,20604
1030,073	-57,92021
1030,232	-57,92021
1030,391	35,72128
1030,55	75,25573
1030,709	-7,9768
1030,868	41,96368
1031,026	-37,1101
1031,185	14,91295
1031,344	-32,94814
1031,503	12,83209
1031,662	8,67035
1031,82	85,65924
1031,979	-91,21746
1032,138	16,9938
1032,296	14,91295
1032,455	-53,75815
1032,614	-1,73408
1032,772	21,1555
1032,931	-82,89303
1033,089	66,93284
1033,248	23,23634
1033,407	16,9938
1033,565	10,75122
1033,724	-24,62428
1033,882	21,1555
1034,04	-57,92021
1034,199	33,64047
1034,357	10,75122
1034,516	-87,05523
1034,674	14,91295
1034,832	66,93284
1034,991	50,28682
1035,149	-1,73408
1035,307	-22,54332
1035,466	-20,46238
1035,624	-91,21746
1035,782	-37,1101
1035,941	4,50859
1036,099	39,88289
1036,257	35,72128
1036,415	-12,13864
1036,573	-26,70523
1036,731	2,42771
1036,889	-24,62428
1037,048	-22,54332
1037,206	6,58947
1037,364	12,83209
1037,522	-47,51509
1037,68	-41,27208
1037,838	-76,64975
1037,996	-76,64975
1038,154	-76,64975
