Data from bigbeakerwithangle1mgmL_FLMT001621__0__16-40-29-036.txt Node

Date: Thu Jun 04 16:40:29 EDT 2026
User: lucas
Spectrometer: FLMT00162
Trigger mode: 0
Integration Time (sec): 1,000000E-1
Scans to average: 1
Electric dark correction enabled: true
Nonlinearity correction enabled: true
Boxcar width: 0
XAxis mode: Wavelengths
Number of Pixels in Spectrum: 3648
>>>>>Begin Spectral Data<<<<<
345,274	-232,91921
345,493	-232,91921
345,712	-232,91921
345,932	-228,75626
346,151	-31,04058
346,37	-10,23113
346,59	27,22461
346,809	-22,71674
347,028	-24,79769
347,247	-39,3645
347,467	-87,22866
347,686	23,06294
347,905	18,90125
348,124	31,38625
348,343	39,70949
348,563	75,08234
348,782	87,56653
349,001	48,03264
349,22	45,95186
349,439	-28,95961
349,658	43,87107
349,877	54,27495
350,096	-53,93157
350,315	95,88923
350,534	100,05054
350,753	106,29248
350,972	50,11342
351,191	12,65868
351,41	54,27495
351,629	68,84018
351,848	45,95186
352,067	52,19419
352,286	4,33519
352,505	-12,31205
352,724	10,57782
352,943	33,46707
353,162	93,80856
353,381	33,46707
353,599	91,72789
353,818	77,16305
354,037	172,87043
354,256	102,1312
354,475	39,70949
354,693	85,48584
354,912	127,09863
355,131	-28,95961
355,35	97,96989
355,568	58,43647
355,787	73,00162
356,006	48,03264
356,224	-8,15021
356,443	100,05054
356,661	60,51722
356,88	-12,31205
357,099	-28,95961
357,317	-6,0693
357,536	93,80856
357,754	23,06294
357,973	120,85684
358,191	100,05054
358,41	127,09863
358,628	-31,04058
358,847	104,21184
359,065	-58,09363
359,284	23,06294
359,502	6,41607
359,721	27,22461
359,939	41,79028
360,157	39,70949
360,376	66,75945
360,594	-74,74209
360,813	-14,39298
361,031	-56,0126
361,249	70,9209
361,467	114,615
361,686	-26,87865
361,904	39,70949
362,122	27,22461
362,341	70,9209
362,559	8,49694
362,777	79,24376
362,995	116,69562
363,213	39,70949
363,431	45,95186
363,65	114,615
363,868	33,46707
364,086	89,64721
364,304	-66,41782
364,522	58,43647
364,74	179,11185
364,958	-14,39298
365,176	75,08234
365,394	68,84018
365,612	64,67871
365,83	58,43647
366,048	39,70949
366,266	81,32446
366,484	73,00162
366,702	-33,12155
366,92	64,67871
367,138	-16,47391
367,356	4,33519
367,574	37,62869
367,792	73,00162
368,01	-3,98839
368,227	152,06536
368,445	-12,31205
368,663	62,59797
368,881	-8,15021
369,099	-20,63579
369,316	-6,0693
369,534	75,08234
369,752	50,11342
369,97	-31,04058
370,187	-20,63579
370,405	131,2598
370,623	110,45375
370,84	23,06294
371,058	-22,71674
371,276	95,88923
371,493	62,59797
371,711	52,19419
371,928	-78,90426
372,146	39,70949
372,364	133,34038
372,581	54,27495
372,799	10,57782
373,016	20,9821
373,234	133,34038
373,451	-6,0693
373,669	-83,06645
373,886	135,42095
374,103	95,88923
374,321	177,03138
374,538	89,64721
374,756	68,84018
374,973	14,73954
375,19	20,9821
375,408	10,57782
375,625	33,46707
375,842	56,35572
376,06	37,62869
376,277	66,75945
376,494	43,87107
376,712	35,54788
376,929	50,11342
377,146	33,46707
377,363	118,77623
377,581	73,00162
377,798	114,615
378,015	-18,55485
378,232	-39,3645
378,449	81,32446
378,666	58,43647
378,883	37,62869
379,101	100,05054
379,318	-18,55485
379,535	87,56653
379,752	106,29248
379,969	-8,15021
380,186	68,84018
380,403	204,07712
380,62	-33,12155
380,837	70,9209
381,054	85,48584
381,271	131,2598
381,488	-12,31205
381,705	-64,33677
381,921	16,8204
382,138	68,84018
382,355	70,9209
382,572	37,62869
382,789	-26,87865
383,006	-1,90749
383,223	35,54788
383,439	137,50152
383,656	-12,31205
383,873	37,62869
384,09	-103,8777
384,306	2,2543
384,523	62,59797
384,74	170,78994
384,957	95,88923
385,173	8,49694
385,39	43,87107
385,607	12,65868
385,823	87,56653
386,04	-12,31205
386,256	-31,04058
386,473	152,06536
386,69	20,9821
386,906	-87,22866
387,123	62,59797
387,339	23,06294
387,556	14,73954
387,772	-24,79769
387,989	129,17922
388,205	50,11342
388,422	91,72789
388,638	70,9209
388,855	93,80856
389,071	145,82374
389,287	77,16305
389,504	118,77623
389,72	62,59797
389,937	56,35572
390,153	29,30543
390,369	85,48584
390,585	14,73954
390,802	54,27495
391,018	29,30543
391,234	95,88923
391,451	-31,04058
391,667	87,56653
391,883	129,17922
392,099	66,75945
392,315	25,14378
392,532	-68,49888
392,748	108,37312
392,964	12,65868
393,18	110,45375
393,396	110,45375
393,612	-41,4455
393,828	23,06294
394,044	29,30543
394,26	110,45375
394,477	43,87107
394,693	-43,5265
394,909	195,75544
395,125	145,82374
395,341	27,22461
395,557	2,2543
395,772	79,24376
395,988	224,88098
396,204	62,59797
396,42	77,16305
396,636	-6,0693
396,852	108,37312
397,068	39,70949
397,284	-8,15021
397,5	93,80856
397,715	114,615
397,931	-35,20253
398,147	58,43647
398,363	48,03264
398,578	23,06294
398,794	-78,90426
399,01	83,40515
399,226	156,22641
399,441	41,79028
399,657	-53,93157
399,873	-20,63579
400,088	81,32446
400,304	79,24376
400,52	110,45375
400,735	-91,39089
400,951	87,56653
401,166	29,30543
401,382	16,8204
401,597	64,67871
401,813	189,51413
402,029	-41,4455
402,244	41,79028
402,46	85,48584
402,675	37,62869
402,89	33,46707
403,106	10,57782
403,321	2,2543
403,537	-10,23113
403,752	54,27495
403,968	52,19419
404,183	39,70949
404,398	-68,49888
404,614	108,37312
404,829	-12,31205
405,044	118,77623
405,26	62,59797
405,475	104,21184
405,69	10,57782
405,905	12,65868
406,121	85,48584
406,336	8,49694
406,551	108,37312
406,766	-56,0126
406,981	37,62869
407,196	39,70949
407,412	64,67871
407,627	68,84018
407,842	35,54788
408,057	162,46795
408,272	-12,31205
408,487	37,62869
408,702	43,87107
408,917	60,51722
409,132	91,72789
409,347	25,14378
409,562	75,08234
409,777	-10,23113
409,992	39,70949
410,207	-6,0693
410,422	160,38744
410,637	-22,71674
410,852	-53,93157
411,067	50,11342
411,282	14,73954
411,496	60,51722
411,711	6,41607
411,926	120,85684
412,141	48,03264
412,356	70,9209
412,571	48,03264
412,785	75,08234
413	70,9209
413,215	45,95186
413,429	54,27495
413,644	-45,6075
413,859	-60,17467
414,074	41,79028
414,288	75,08234
414,503	-3,98839
414,718	45,95186
414,932	91,72789
415,147	-1,90749
415,361	89,64721
415,576	79,24376
415,79	-8,15021
416,005	122,93744
416,22	79,24376
416,434	120,85684
416,649	25,14378
416,863	48,03264
417,077	33,46707
417,292	33,46707
417,506	154,14589
417,721	60,51722
417,935	116,69562
418,15	-43,5265
418,364	18,90125
418,578	75,08234
418,793	6,41607
419,007	114,615
419,221	16,8204
419,436	56,35572
419,65	110,45375
419,864	25,14378
420,078	25,14378
420,293	48,03264
420,507	37,62869
420,721	127,09863
420,935	93,80856
421,149	81,32446
421,364	-3,98839
421,578	116,69562
421,792	48,03264
422,006	18,90125
422,22	158,30693
422,434	41,79028
422,648	-47,68851
422,862	133,34038
423,076	93,80856
423,29	52,19419
423,504	-6,0693
423,718	106,29248
423,932	68,84018
424,146	43,87107
424,36	73,00162
424,574	152,06536
424,788	62,59797
425,002	81,32446
425,216	73,00162
425,43	25,14378
425,644	114,615
425,858	-66,41782
426,071	62,59797
426,285	83,40515
426,499	85,48584
426,713	62,59797
426,927	102,1312
427,14	20,9821
427,354	235,28273
427,568	60,51722
427,782	66,75945
427,995	-6,0693
428,209	58,43647
428,423	164,54846
428,636	27,22461
428,85	-31,04058
429,063	18,90125
429,277	85,48584
429,491	70,9209
429,704	110,45375
429,918	106,29248
430,131	-1,90749
430,345	-64,33677
430,558	-3,98839
430,772	122,93744
430,985	-12,31205
431,199	-33,12155
431,412	2,2543
431,626	-66,41782
431,839	54,27495
432,053	29,30543
432,266	68,84018
432,479	64,67871
432,693	-14,39298
432,906	16,8204
433,119	37,62869
433,333	-14,39298
433,546	100,05054
433,759	56,35572
433,973	18,90125
434,186	112,53438
434,399	18,90125
434,612	48,03264
434,825	224,88098
435,039	-31,04058
435,252	-16,47391
435,465	152,06536
435,678	-78,90426
435,891	39,70949
436,104	39,70949
436,318	64,67871
436,531	23,06294
436,744	87,56653
436,957	58,43647
437,17	-133,01433
437,383	95,88923
437,596	-24,79769
437,809	33,46707
438,022	43,87107
438,235	60,51722
438,448	141,66264
438,661	60,51722
438,874	64,67871
439,086	31,38625
439,299	31,38625
439,512	231,12205
439,725	35,54788
439,938	79,24376
440,151	0,17341
440,364	4,33519
440,576	170,78994
440,789	106,29248
441,002	50,11342
441,215	152,06536
441,427	33,46707
441,64	45,95186
441,853	104,21184
442,066	127,09863
442,278	68,84018
442,491	60,51722
442,704	54,27495
442,916	50,11342
443,129	226,96134
443,341	43,87107
443,554	56,35572
443,767	62,59797
443,979	131,2598
444,192	210,31833
444,404	48,03264
444,617	58,43647
444,829	54,27495
445,042	104,21184
445,254	118,77623
445,467	-53,93157
445,679	189,51413
445,892	112,53438
446,104	29,30543
446,316	14,73954
446,529	45,95186
446,741	-8,15021
446,953	62,59797
447,166	-12,31205
447,378	45,95186
447,59	75,08234
447,803	127,09863
448,015	70,9209
448,227	120,85684
448,439	-12,31205
448,652	23,06294
448,864	139,58208
449,076	33,46707
449,288	79,24376
449,5	45,95186
449,712	75,08234
449,925	91,72789
450,137	85,48584
450,349	41,79028
450,561	145,82374
450,773	-80,98535
450,985	43,87107
451,197	52,19419
451,409	14,73954
451,621	41,79028
451,833	118,77623
452,045	23,06294
452,257	31,38625
452,469	29,30543
452,681	-31,04058
452,893	-1,90749
453,105	87,56653
453,317	75,08234
453,529	-58,09363
453,74	39,70949
453,952	-33,12155
454,164	100,05054
454,376	93,80856
454,588	64,67871
454,799	79,24376
455,011	93,80856
455,223	-68,49888
455,435	135,42095
455,646	41,79028
455,858	-28,95961
456,07	164,54846
456,281	0,17341
456,493	60,51722
456,705	35,54788
456,916	4,33519
457,128	87,56653
457,34	-43,5265
457,551	160,38744
457,763	52,19419
457,974	33,46707
458,186	120,85684
458,397	75,08234
458,609	110,45375
458,82	135,42095
459,032	56,35572
459,243	120,85684
459,455	122,93744
459,666	-6,0693
459,878	85,48584
460,089	20,9821
460,3	8,49694
460,512	83,40515
460,723	73,00162
460,934	77,16305
461,146	104,21184
461,357	181,19232
461,568	14,73954
461,78	195,75544
461,991	131,2598
462,202	37,62869
462,413	204,07712
462,625	79,24376
462,836	4,33519
463,047	58,43647
463,258	25,14378
463,469	4,33519
463,68	-3,98839
463,891	54,27495
464,103	81,32446
464,314	23,06294
464,525	95,88923
464,736	83,40515
464,947	41,79028
465,158	25,14378
465,369	8,49694
465,58	16,8204
465,791	-10,23113
466,002	-6,0693
466,213	81,32446
466,424	35,54788
466,635	68,84018
466,846	66,75945
467,056	-6,0693
467,267	75,08234
467,478	-14,39298
467,689	97,96989
467,9	-26,87865
468,111	-56,0126
468,322	-60,17467
468,532	89,64721
468,743	-33,12155
468,954	25,14378
469,165	2,2543
469,375	12,65868
469,586	87,56653
469,797	73,00162
470,007	43,87107
470,218	-22,71674
470,429	20,9821
470,639	141,66264
470,85	-37,28351
471,061	39,70949
471,271	43,87107
471,482	104,21184
471,692	127,09863
471,903	-16,47391
472,113	58,43647
472,324	97,96989
472,534	87,56653
472,745	-6,0693
472,955	27,22461
473,166	18,90125
473,376	141,66264
473,587	37,62869
473,797	-18,55485
474,007	97,96989
474,218	31,38625
474,428	89,64721
474,638	54,27495
474,849	62,59797
475,059	8,49694
475,269	108,37312
475,48	54,27495
475,69	133,34038
475,9	58,43647
476,11	52,19419
476,321	164,54846
476,531	41,79028
476,741	6,41607
476,951	81,32446
477,161	-1,90749
477,371	25,14378
477,581	48,03264
477,792	12,65868
478,002	125,01804
478,212	137,50152
478,422	48,03264
478,632	12,65868
478,842	-33,12155
479,052	-39,3645
479,262	133,34038
479,472	233,20239
479,682	54,27495
479,892	56,35572
480,102	27,22461
480,312	-6,0693
480,522	85,48584
480,731	112,53438
480,941	95,88923
481,151	-14,39298
481,361	106,29248
481,571	35,54788
481,781	104,21184
481,991	129,17922
482,2	60,51722
482,41	0,17341
482,62	68,84018
482,83	66,75945
483,039	8,49694
483,249	56,35572
483,459	97,96989
483,668	56,35572
483,878	-51,85054
484,088	35,54788
484,297	-28,95961
484,507	70,9209
484,716	66,75945
484,926	104,21184
485,136	73,00162
485,345	104,21184
485,555	29,30543
485,764	60,51722
485,974	100,05054
486,183	129,17922
486,393	145,82374
486,602	66,75945
486,812	27,22461
487,021	-35,20253
487,23	37,62869
487,44	16,8204
487,649	35,54788
487,859	172,87043
488,068	37,62869
488,277	87,56653
488,487	77,16305
488,696	-1,90749
488,905	8,49694
489,115	58,43647
489,324	16,8204
489,533	35,54788
489,742	141,66264
489,951	64,67871
490,161	77,16305
490,37	14,73954
490,579	14,73954
490,788	177,03138
490,997	-37,28351
491,206	93,80856
491,415	20,9821
491,625	0,17341
491,834	31,38625
492,043	174,95091
492,252	31,38625
492,461	33,46707
492,67	81,32446
492,879	229,0417
493,088	-26,87865
493,297	258,16617
493,506	56,35572
493,715	158,30693
493,924	45,95186
494,132	50,11342
494,341	118,77623
494,55	79,24376
494,759	52,19419
494,968	95,88923
495,177	52,19419
495,386	143,74319
495,594	41,79028
495,803	97,96989
496,012	45,95186
496,221	81,32446
496,429	48,03264
496,638	139,58208
496,847	37,62869
497,055	54,27495
497,264	70,9209
497,473	116,69562
497,681	137,50152
497,89	154,14589
498,099	75,08234
498,307	-20,63579
498,516	81,32446
498,724	-53,93157
498,933	-8,15021
499,141	27,22461
499,35	-49,76952
499,558	154,14589
499,767	112,53438
499,975	77,16305
500,184	64,67871
500,392	23,06294
500,601	95,88923
500,809	79,24376
501,018	2,2543
501,226	-16,47391
501,434	16,8204
501,643	158,30693
501,851	166,62896
502,059	31,38625
502,268	27,22461
502,476	68,84018
502,684	35,54788
502,892	127,09863
503,101	116,69562
503,309	73,00162
503,517	31,38625
503,725	73,00162
503,933	-143,42052
504,141	14,73954
504,35	62,59797
504,558	41,79028
504,766	-8,15021
504,974	125,01804
505,182	195,75544
505,39	16,8204
505,598	73,00162
505,806	48,03264
506,014	89,64721
506,222	50,11342
506,43	77,16305
506,638	137,50152
506,846	158,30693
507,054	91,72789
507,262	106,29248
507,47	118,77623
507,678	-8,15021
507,886	39,70949
508,094	131,2598
508,301	120,85684
508,509	118,77623
508,717	77,16305
508,925	91,72789
509,133	12,65868
509,34	20,9821
509,548	64,67871
509,756	23,06294
509,964	160,38744
510,171	112,53438
510,379	8,49694
510,587	54,27495
510,794	12,65868
511,002	6,41607
511,21	41,79028
511,417	2,2543
511,625	75,08234
511,832	50,11342
512,04	-16,47391
512,247	18,90125
512,455	43,87107
512,663	48,03264
512,87	122,93744
513,078	164,54846
513,285	89,64721
513,492	48,03264
513,7	-12,31205
513,907	45,95186
514,115	-3,98839
514,322	41,79028
514,529	-20,63579
514,737	33,46707
514,944	112,53438
515,152	54,27495
515,359	60,51722
515,566	12,65868
515,773	-10,23113
515,981	-20,63579
516,188	20,9821
516,395	201,99671
516,602	133,34038
516,81	116,69562
517,017	108,37312
517,224	137,50152
517,431	-26,87865
517,638	23,06294
517,845	127,09863
518,053	52,19419
518,26	16,8204
518,467	25,14378
518,674	16,8204
518,881	56,35572
519,088	68,84018
519,295	114,615
519,502	23,06294
519,709	27,22461
519,916	91,72789
520,123	68,84018
520,33	116,69562
520,537	12,65868
520,744	10,57782
520,95	139,58208
521,157	64,67871
521,364	73,00162
521,571	8,49694
521,778	89,64721
521,985	104,21184
522,191	112,53438
522,398	45,95186
522,605	14,73954
522,812	-53,93157
523,019	33,46707
523,225	-41,4455
523,432	129,17922
523,639	25,14378
523,845	4,33519
524,052	-14,39298
524,259	68,84018
524,465	95,88923
524,672	-1,90749
524,878	50,11342
525,085	-26,87865
525,292	-47,68851
525,498	104,21184
525,705	166,62896
525,911	6,41607
526,118	104,21184
526,324	135,42095
526,531	83,40515
526,737	97,96989
526,944	58,43647
527,15	183,27278
527,356	68,84018
527,563	6,41607
527,769	45,95186
527,975	-6,0693
528,182	110,45375
528,388	48,03264
528,594	104,21184
528,801	100,05054
529,007	-56,0126
529,213	64,67871
529,42	58,43647
529,626	91,72789
529,832	81,32446
530,038	-76,82318
530,244	12,65868
530,451	73,00162
530,657	60,51722
530,863	16,8204
531,069	87,56653
531,275	-49,76952
531,481	166,62896
531,687	2,2543
531,893	-1,90749
532,099	29,30543
532,305	-35,20253
532,511	18,90125
532,717	48,03264
532,923	83,40515
533,129	162,46795
533,335	50,11342
533,541	89,64721
533,747	100,05054
533,953	60,51722
534,159	83,40515
534,365	85,48584
534,571	62,59797
534,777	122,93744
534,982	52,19419
535,188	23,06294
535,394	39,70949
535,6	149,98482
535,806	66,75945
536,011	-39,3645
536,217	4,33519
536,423	79,24376
536,628	56,35572
536,834	-110,12118
537,04	-35,20253
537,245	58,43647
537,451	137,50152
537,657	45,95186
537,862	-12,31205
538,068	12,65868
538,273	64,67871
538,479	133,34038
538,685	54,27495
538,89	-8,15021
539,096	79,24376
539,301	79,24376
539,507	-31,04058
539,712	125,01804
539,917	10,57782
540,123	216,5595
540,328	87,56653
540,534	131,2598
540,739	139,58208
540,944	14,73954
541,15	156,22641
541,355	174,95091
541,56	125,01804
541,766	37,62869
541,971	58,43647
542,176	-24,79769
542,382	122,93744
542,587	60,51722
542,792	58,43647
542,997	89,64721
543,202	-56,0126
543,408	12,65868
543,613	23,06294
543,818	43,87107
544,023	-16,47391
544,228	48,03264
544,433	-3,98839
544,638	-16,47391
544,843	97,96989
545,049	73,00162
545,254	12,65868
545,459	25,14378
545,664	43,87107
545,869	154,14589
546,074	162,46795
546,279	66,75945
546,483	18,90125
546,688	-22,71674
546,893	25,14378
547,098	41,79028
547,303	85,48584
547,508	52,19419
547,713	93,80856
547,918	-10,23113
548,122	68,84018
548,327	110,45375
548,532	147,90429
548,737	2,2543
548,942	70,9209
549,146	135,42095
549,351	-14,39298
549,556	-16,47391
549,76	39,70949
549,965	104,21184
550,17	64,67871
550,374	77,16305
550,579	39,70949
550,784	58,43647
550,988	62,59797
551,193	20,9821
551,397	60,51722
551,602	108,37312
551,806	18,90125
552,011	83,40515
552,215	66,75945
552,42	6,41607
552,624	177,03138
552,829	35,54788
553,033	43,87107
553,238	52,19419
553,442	29,30543
553,646	56,35572
553,851	2,2543
554,055	48,03264
554,26	31,38625
554,464	145,82374
554,668	179,11185
554,872	56,35572
555,077	50,11342
555,281	62,59797
555,485	62,59797
555,69	66,75945
555,894	75,08234
556,098	122,93744
556,302	12,65868
556,506	8,49694
556,71	10,57782
556,915	56,35572
557,119	41,79028
557,323	50,11342
557,527	39,70949
557,731	135,42095
557,935	129,17922
558,139	73,00162
558,343	2,2543
558,547	199,91629
558,751	85,48584
558,955	45,95186
559,159	100,05054
559,363	110,45375
559,567	131,2598
559,771	177,03138
559,975	108,37312
560,179	102,1312
560,382	239,4434
560,586	274,8083
560,79	97,96989
560,994	193,67501
561,198	214,47911
561,402	141,66264
561,605	52,19419
561,809	108,37312
562,013	68,84018
562,217	91,72789
562,42	56,35572
562,624	168,70945
562,828	27,22461
563,031	164,54846
563,235	97,96989
563,439	120,85684
563,642	127,09863
563,846	110,45375
564,049	50,11342
564,253	125,01804
564,456	58,43647
564,66	156,22641
564,863	139,58208
565,067	168,70945
565,27	181,19232
565,474	81,32446
565,677	145,82374
565,881	170,78994
566,084	93,80856
566,288	137,50152
566,491	83,40515
566,694	-16,47391
566,898	195,75544
567,101	218,63988
567,304	75,08234
567,508	52,19419
567,711	222,80062
567,914	120,85684
568,118	106,29248
568,321	214,47911
568,524	231,12205
568,727	108,37312
568,93	183,27278
569,134	54,27495
569,337	145,82374
569,54	91,72789
569,743	118,77623
569,946	102,1312
570,149	187,43369
570,352	191,59458
570,555	164,54846
570,758	85,48584
570,962	97,96989
571,165	125,01804
571,368	168,70945
571,571	233,20239
571,774	152,06536
571,976	154,14589
572,179	247,76468
572,382	131,2598
572,585	114,615
572,788	177,03138
572,991	133,34038
573,194	145,82374
573,397	170,78994
573,6	149,98482
573,802	222,80062
574,005	268,56754
574,208	95,88923
574,411	220,72025
574,613	222,80062
574,816	274,8083
575,019	197,83587
575,222	112,53438
575,424	154,14589
575,627	145,82374
575,83	143,74319
576,032	237,36307
576,235	274,8083
576,438	254,00559
576,64	79,24376
576,843	197,83587
577,045	108,37312
577,248	147,90429
577,45	112,53438
577,653	141,66264
577,855	154,14589
578,058	168,70945
578,26	241,52373
578,463	162,46795
578,665	256,08588
578,868	116,69562
579,07	214,47911
579,272	172,87043
579,475	149,98482
579,677	258,16617
579,879	222,80062
580,082	249,84499
580,284	220,72025
580,486	185,35324
580,689	247,76468
580,891	245,68437
581,093	226,96134
581,295	278,96879
581,498	97,96989
581,7	283,12925
581,902	274,8083
582,104	276,88855
582,306	208,23793
582,508	245,68437
582,71	343,45392
582,913	418,33426
583,115	330,97327
583,317	368,4147
583,519	349,69417
583,721	326,81302
583,923	410,01452
584,125	412,09446
584,327	276,88855
584,529	410,01452
584,731	497,3682
584,933	514,00609
585,135	470,33101
585,336	509,84664
585,538	626,30443
585,74	507,76691
585,942	624,22494
586,144	557,6792
586,346	597,19128
586,547	630,46338
586,749	609,66845
586,951	613,82747
587,153	709,48016
587,355	790,56989
587,556	782,25329
587,758	751,06544
587,96	890,36385
588,161	813,44019
588,363	884,12701
588,565	1029,64371
588,766	983,91203
588,968	983,91203
589,17	1189,68933
589,371	1162,67029
589,573	1243,72545
589,774	1320,61849
589,976	1279,05534
590,177	1495,16716
590,379	1538,8002
590,58	1422,44178
590,782	1592,81979
590,983	1783,94625
591,185	1746,55435
591,386	2006,19652
591,587	2168,18544
591,789	2203,48792
591,99	2307,313
592,192	2388,29063
592,393	2471,33925
592,594	2755,7399
592,796	2869,89765
592,997	2871,97315
593,198	2915,55792
593,399	3243,4343
593,601	3452,98251
593,802	3579,52477
594,003	3710,2028
594,204	4000,55012
594,405	4139,47824
594,607	4162,28584
594,808	4531,29525
595,009	4572,74993
595,21	4850,4589
595,411	5055,58938
595,612	5266,89722
595,813	5343,53822
596,014	5471,95171
596,215	5788,77767
596,416	5923,34815
596,617	5900,57591
596,818	6059,97099
597,019	6376,61641
597,22	6484,21134
597,421	6610,4132
597,622	6490,41838
597,823	6649,71858
598,024	6674,54219
598,225	6707,63932
598,426	6717,98194
598,627	6840,01619
598,827	6835,87969
599,028	6959,96643
599,229	7203,95444
599,43	6808,99204
599,63	7137,79472
599,831	7077,83327
600,032	7015,79999
600,233	6885,51639
600,433	6734,52989
600,634	6633,16915
600,835	6707,63932
601,035	6569,03737
601,236	6531,7976
601,437	6535,93542
601,637	6339,36925
601,838	6264,87071
602,038	6076,53009
602,239	6153,11241
602,439	6163,46092
602,64	5935,76916
602,841	5948,19002
603,041	5457,45417
603,241	5594,13755
603,442	5488,52009
603,642	5258,61139
603,843	5364,25109
604,043	5063,87671
604,244	5049,37385
604,444	4927,12811
604,644	4840,09781
604,845	4782,07398
605,045	4581,0407
605,245	4549,95003
605,446	4512,64017
605,646	4527,1497
605,846	4183,01967
606,046	4270,0979
606,247	4116,67021
606,447	3994,3291
606,647	3695,68368
606,847	3747,53691
607,047	3633,45701
607,248	3668,71917
607,448	3569,15293
607,648	3378,29597
607,848	3305,6799
608,048	3268,3329
608,248	3320,20344
608,448	3137,60988
608,648	3241,35939
608,848	3374,14659
609,048	3160,43549
609,248	3096,10774
609,448	2813,85783
609,648	2944,61362
609,848	2890,65252
610,048	2749,51282
610,248	2635,3444
610,448	2544,00235
610,648	2541,92632
610,847	2676,86136
611,047	2523,24189
611,247	2483,79608
611,447	2425,66318
611,647	2419,4345
611,846	2259,55453
612,046	2199,33474
612,246	2095,50072
612,446	2207,64109
612,645	1972,9654
612,845	1987,50413
613,045	1962,5805
613,244	2076,80967
613,444	2049,811
613,644	1819,25976
613,843	1802,64176
614,043	1765,25045
614,243	1804,71903
614,442	1788,10083
614,642	1630,21652
614,841	1542,95564
615,041	1590,74216
615,24	1648,91444
615,44	1752,78642
615,639	1648,91444
615,839	1518,02276
616,038	1520,10052
616,237	1391,27235
616,437	1497,24496
616,636	1341,3995
616,836	1364,25816
617,035	1393,35034
617,234	1291,52445
617,434	1245,80371
617,633	1287,36809
617,832	1303,99342
618,032	1227,09923
618,231	1208,39444
618,43	1268,66431
618,629	1235,41237
618,828	1310,22785
619,028	1256,19495
619,227	1137,72904
619,426	1106,55168
619,625	1206,31611
619,824	1264,50787
620,023	1017,17163
620,222	1019,25032
620,422	992,22703
620,621	1183,45423
620,82	913,23195
621,019	1104,47316
621,218	1048,35155
621,417	929,86298
621,616	1092,00194
621,815	1102,39463
622,014	965,20306
622,213	946,49375
622,411	1081,60915
622,61	988,06954
622,809	990,14829
623,008	983,91203
623,207	1152,27817
623,406	1021,329
623,605	948,57258
623,803	846,70517
624,002	958,96666
624,201	927,78412
624,4	1040,037
624,598	1071,21626
624,797	1139,8075
624,996	909,07415
625,195	906,99524
625,393	755,22388
625,592	890,36385
625,791	834,23093
625,989	904,91633
626,188	855,02125
626,386	844,62614
626,585	921,5475
626,784	821,75654
626,982	836,30998
627,181	811,36109
627,379	898,67958
627,578	865,41626
627,776	869,57423
627,975	898,67958
628,173	848,7842
628,371	846,70517
628,57	896,60065
628,768	827,99375
628,967	863,33726
629,165	904,91633
629,363	956,88785
629,562	919,46862
629,76	844,62614
629,958	807,20288
630,157	740,66928
630,355	917,38973
630,553	827,99375
630,751	786,4116
630,95	809,28199
631,148	792,64903
631,346	934,0207
631,544	832,15187
631,742	794,72816
631,94	738,59004
632,139	792,64903
632,337	825,91468
632,535	825,91468
632,733	807,20288
632,931	811,36109
633,129	763,5407
633,327	859,17927
633,525	884,12701
633,723	838,38903
633,921	865,41626
634,119	873,73219
634,317	809,28199
634,515	871,65321
634,713	861,25827
634,91	871,65321
635,108	971,43942
635,306	1067,05908
635,504	977,67575
635,702	977,67575
635,9	923,62638
636,097	1094,08049
636,295	1037,95835
636,493	1148,12129
636,691	1027,56504
636,888	1129,41516
637,086	1123,17972
637,284	927,78412
637,482	1062,90188
637,679	1256,19495
637,877	1143,9644
638,075	1166,82711
638,272	1198,00275
638,47	1181,37585
638,667	1212,55109
638,865	1293,60262
639,062	1403,74022
639,26	1445,29882
639,457	1341,3995
639,655	1459,84398
639,852	1414,13001
640,05	1355,94597
640,247	1547,11106
640,445	1391,27235
640,642	1605,2855
640,84	1565,8103
641,037	1432,8314
641,234	1574,12098
641,432	1623,98381
641,629	1640,60429
641,826	1632,29408
642,024	1632,29408
642,221	1648,91444
642,418	1719,54837
642,615	1565,8103
642,813	1711,23871
643,01	1644,75937
643,207	1802,64176
643,404	1808,87354
643,602	1723,70317
643,799	1750,70906
643,996	1796,40996
644,193	1842,10912
644,39	1854,57223
644,587	1827,56867
644,784	1887,80656
644,981	1806,79628
645,178	1829,64588
645,375	1889,88368
645,572	1879,49806
645,769	1873,26665
645,966	1964,65749
646,163	2114,19148
646,36	2064,34882
646,557	1997,88883
646,754	2026,96551
646,951	2047,73416
647,148	2126,65183
647,345	2130,80525
647,542	2085,11684
647,738	2145,34213
647,935	2218,02395
648,132	2120,42167
648,329	2242,94246
648,526	2224,25362
648,722	2242,94246
648,919	2240,86594
649,116	2209,71767
649,312	2228,40672
649,509	2265,784
649,706	2236,71288
649,902	2228,40672
650,099	2220,10051
650,296	2296,93088
650,492	2336,38249
650,689	2263,70751
650,885	2139,11206
651,082	2209,71767
651,278	2438,12045
651,475	2259,55453
651,671	2342,61158
651,868	2209,71767
652,064	2357,146
652,261	2301,08374
652,457	2274,08991
652,654	2282,39576
652,85	2103,80776
653,047	2207,64109
653,243	2195,18154
653,439	2186,87511
653,636	2141,18875
653,832	2222,17707
654,028	2215,94738
654,224	2089,2704
654,421	2143,26544
654,617	2045,65731
654,813	1981,27327
655,009	1837,95472
655,206	1997,88883
655,402	1941,81042
655,598	1997,88883
655,794	1968,81145
655,99	1931,42525
656,186	1894,0379
656,383	1937,65636
656,579	1781,86895
656,775	1721,62577
656,971	1698,77412
657,167	1700,85156
657,363	1657,22453
657,559	1686,30939
657,755	1640,60429
657,951	1781,86895
658,147	1613,5959
658,343	1603,20789
658,539	1559,57726
658,735	1520,10052
658,93	1545,03335
659,126	1648,91444
659,322	1509,71169
659,518	1463,9997
659,714	1443,22093
659,91	1405,81819
660,105	1387,11636
660,301	1434,90931
660,497	1420,36384
660,693	1418,2859
660,888	1407,89615
661,084	1335,16524
661,28	1331,00904
661,476	1310,22785
661,671	1148,12129
661,867	1295,68079
662,062	1035,87969
662,258	1299,83711
662,454	1210,47277
662,649	1146,04285
662,845	1326,85283
663,04	1185,5326
663,236	1266,58609
663,431	1243,72545
663,627	1048,35155
663,822	1044,19428
664,018	961,04546
664,213	1154,3566
664,409	1010,93553
664,604	1100,3161
664,799	927,78412
664,995	998,46323
665,19	1035,87969
665,386	1031,72237
665,581	846,70517
665,776	927,78412
665,972	929,86298
666,167	836,30998
666,362	701,1629
666,557	832,15187
666,753	807,20288
666,948	815,51928
667,143	969,36064
667,338	934,0207
667,533	805,12378
667,728	817,59837
667,924	688,68687
668,119	827,99375
668,314	776,0158
668,509	703,24222
668,704	692,84556
668,899	711,55946
669,094	665,81376
669,289	605,50941
669,484	761,4615
669,679	680,36944
669,874	686,60752
670,069	584,71395
670,264	661,65496
670,459	674,13132
670,654	678,29007
670,849	669,97255
671,043	538,96239
671,238	482,8098
671,433	588,87308
671,628	590,95263
671,823	495,28844
672,018	570,15687
672,212	638,78123
672,407	632,54285
672,602	518,16552
672,797	499,44795
672,991	636,70177
673,186	511,92637
673,381	580,55481
673,575	597,19128
673,77	543,12171
673,965	478,65022
674,159	507,76691
674,354	545,20137
674,548	590,95263
674,743	505,68718
674,937	545,20137
675,132	543,12171
675,326	536,88272
675,521	414,1744
675,715	582,63438
675,91	462,01172
676,104	389,21484
676,299	507,76691
676,493	553,51994
676,687	322,65275
676,882	428,73384
677,076	303,93131
677,271	464,09155
677,465	412,09446
677,659	478,65022
677,853	474,49062
678,048	362,17456
678,242	416,25433
678,436	403,77466
678,63	378,81482
678,825	397,53476
679,019	370,49473
679,213	401,6947
679,407	283,12925
679,601	407,93457
679,795	199,91629
679,99	382,97484
680,184	335,13351
680,378	418,33426
680,572	401,6947
680,766	401,6947
680,96	376,73481
681,154	322,65275
681,348	434,97353
681,542	410,01452
681,736	393,37481
681,93	434,97353
682,124	320,57261
682,317	393,37481
682,511	389,21484
682,705	289,36992
682,899	351,77425
683,093	270,6478
683,287	293,53034
683,481	295,61054
683,674	295,61054
683,868	314,33216
684,062	299,77093
684,256	335,13351
684,449	341,37382
684,643	324,73289
684,837	374,65479
685,03	376,73481
685,224	185,35324
685,418	339,29372
685,611	310,17183
685,805	476,57043
685,999	380,89484
686,192	210,31833
686,386	220,72025
686,579	301,85112
686,773	239,4434
686,966	382,97484
687,16	368,4147
687,353	316,41231
687,547	347,61409
687,74	237,36307
687,934	276,88855
688,127	330,97327
688,32	314,33216
688,514	278,96879
688,707	328,89315
688,9	376,73481
689,094	333,05339
689,287	308,09166
689,48	241,52373
689,674	345,53401
689,867	293,53034
690,06	285,20948
690,253	293,53034
690,447	301,85112
690,64	320,57261
690,833	264,407
691,026	455,7722
691,219	364,25461
691,412	226,96134
691,605	320,57261
691,799	245,68437
691,992	278,96879
692,185	208,23793
692,378	310,17183
692,571	299,77093
692,764	412,09446
692,957	283,12925
693,15	314,33216
693,343	206,15753
693,536	297,69074
693,729	341,37382
693,921	297,69074
694,114	274,8083
694,307	249,84499
694,5	312,252
694,693	368,4147
694,886	270,6478
695,079	314,33216
695,271	289,36992
695,464	291,45013
695,657	289,36992
695,85	199,91629
696,042	274,8083
696,235	254,00559
696,428	289,36992
696,62	287,2897
696,813	414,1744
697,006	397,53476
697,198	291,45013
697,391	328,89315
697,584	341,37382
697,776	353,85432
697,969	353,85432
698,161	351,77425
698,354	303,93131
698,546	351,77425
698,739	407,93457
698,931	407,93457
699,124	197,83587
699,316	391,29483
699,509	264,407
699,701	281,04902
699,893	343,45392
700,086	278,96879
700,278	343,45392
700,47	324,73289
700,663	511,92637
700,855	372,57476
701,047	224,88098
701,24	276,88855
701,432	272,72805
701,624	299,77093
701,816	362,17456
702,008	397,53476
702,201	376,73481
702,393	274,8083
702,585	276,88855
702,777	412,09446
702,969	308,09166
703,161	439,1333
703,353	355,93439
703,546	393,37481
703,738	353,85432
703,93	443,29305
704,122	333,05339
704,314	283,12925
704,506	422,49411
704,698	399,61473
704,89	243,60405
705,082	380,89484
705,273	326,81302
705,465	345,53401
705,657	343,45392
705,849	251,92529
706,041	337,21362
706,233	268,56754
706,425	324,73289
706,616	372,57476
706,808	347,61409
707	320,57261
707,192	243,60405
707,383	339,29372
707,575	382,97484
707,767	316,41231
707,959	358,01445
708,15	247,76468
708,342	349,69417
708,534	389,21484
708,725	297,69074
708,917	534,80305
709,108	382,97484
709,3	326,81302
709,491	241,52373
709,683	220,72025
709,875	339,29372
710,066	434,97353
710,258	418,33426
710,449	243,60405
710,64	316,41231
710,832	424,57402
711,023	330,97327
711,215	472,41082
711,406	272,72805
711,597	360,09451
711,789	322,65275
711,98	341,37382
712,171	345,53401
712,363	345,53401
712,554	276,88855
712,745	337,21362
712,937	218,63988
713,128	333,05339
713,319	395,45479
713,51	339,29372
713,701	316,41231
713,893	339,29372
714,084	355,93439
714,275	283,12925
714,466	337,21362
714,657	364,25461
714,848	191,59458
715,039	366,33466
715,23	239,4434
715,421	353,85432
715,612	345,53401
715,803	455,7722
715,994	201,99671
716,185	362,17456
716,376	303,93131
716,567	416,25433
716,758	349,69417
716,949	168,70945
717,14	370,49473
717,331	299,77093
717,522	326,81302
717,712	306,01149
717,903	335,13351
718,094	266,48727
718,285	326,81302
718,476	326,81302
718,666	324,73289
718,857	185,35324
719,048	160,38744
719,238	247,76468
719,429	385,05485
719,62	264,407
719,81	231,12205
720,001	251,92529
720,192	254,00559
720,382	235,28273
720,573	291,45013
720,763	258,16617
720,954	206,15753
721,144	237,36307
721,335	372,57476
721,525	210,31833
721,716	218,63988
721,906	174,95091
722,097	208,23793
722,287	249,84499
722,478	164,54846
722,668	251,92529
722,858	251,92529
723,049	343,45392
723,239	235,28273
723,429	120,85684
723,62	201,99671
723,81	281,04902
724	160,38744
724,191	218,63988
724,381	266,48727
724,571	247,76468
724,761	283,12925
724,951	214,47911
725,142	131,2598
725,332	131,2598
725,522	145,82374
725,712	189,51413
725,902	137,50152
726,092	162,46795
726,282	333,05339
726,472	208,23793
726,662	154,14589
726,852	183,27278
727,042	158,30693
727,232	189,51413
727,422	210,31833
727,612	270,6478
727,802	168,70945
727,992	156,22641
728,182	278,96879
728,372	185,35324
728,562	62,59797
728,752	122,93744
728,942	166,62896
729,131	145,82374
729,321	143,74319
729,511	195,75544
729,701	216,5595
729,89	251,92529
730,08	191,59458
730,27	68,84018
730,46	179,11185
730,649	231,12205
730,839	201,99671
731,029	18,90125
731,218	68,84018
731,408	91,72789
731,597	166,62896
731,787	39,70949
731,977	197,83587
732,166	189,51413
732,356	77,16305
732,545	127,09863
732,735	233,20239
732,924	158,30693
733,114	50,11342
733,303	60,51722
733,492	139,58208
733,682	97,96989
733,871	122,93744
734,061	143,74319
734,25	189,51413
734,439	91,72789
734,629	-37,28351
734,818	112,53438
735,007	201,99671
735,197	54,27495
735,386	81,32446
735,575	83,40515
735,764	16,8204
735,954	81,32446
736,143	20,9821
736,332	129,17922
736,521	164,54846
736,71	181,19232
736,899	62,59797
737,088	125,01804
737,278	108,37312
737,467	158,30693
737,656	87,56653
737,845	95,88923
738,034	131,2598
738,223	73,00162
738,412	118,77623
738,601	54,27495
738,79	104,21184
738,979	25,14378
739,168	108,37312
739,356	60,51722
739,545	66,75945
739,734	66,75945
739,923	73,00162
740,112	160,38744
740,301	64,67871
740,489	97,96989
740,678	135,42095
740,867	133,34038
741,056	177,03138
741,245	170,78994
741,433	120,85684
741,622	122,93744
741,811	106,29248
741,999	247,76468
742,188	70,9209
742,377	16,8204
742,565	95,88923
742,754	108,37312
742,942	108,37312
743,131	116,69562
743,319	56,35572
743,508	54,27495
743,697	160,38744
743,885	102,1312
744,073	31,38625
744,262	41,79028
744,45	229,0417
744,639	68,84018
744,827	60,51722
745,016	129,17922
745,204	97,96989
745,392	95,88923
745,581	48,03264
745,769	139,58208
745,957	50,11342
746,146	83,40515
746,334	100,05054
746,522	37,62869
746,71	233,20239
746,899	39,70949
747,087	102,1312
747,275	73,00162
747,463	-45,6075
747,651	89,64721
747,84	174,95091
748,028	97,96989
748,216	100,05054
748,404	41,79028
748,592	104,21184
748,78	48,03264
748,968	174,95091
749,156	77,16305
749,344	-26,87865
749,532	154,14589
749,72	133,34038
749,908	52,19419
750,096	73,00162
750,284	29,30543
750,472	129,17922
750,66	181,19232
750,847	168,70945
751,035	54,27495
751,223	54,27495
751,411	137,50152
751,599	100,05054
751,787	56,35572
751,974	37,62869
752,162	116,69562
752,35	54,27495
752,537	110,45375
752,725	25,14378
752,913	87,56653
753,101	68,84018
753,288	54,27495
753,476	118,77623
753,663	23,06294
753,851	83,40515
754,039	139,58208
754,226	-24,79769
754,414	48,03264
754,601	154,14589
754,789	27,22461
754,976	62,59797
755,164	102,1312
755,351	16,8204
755,539	54,27495
755,726	206,15753
755,913	50,11342
756,101	102,1312
756,288	60,51722
756,476	66,75945
756,663	204,07712
756,85	60,51722
757,037	93,80856
757,225	135,42095
757,412	14,73954
757,599	45,95186
757,787	272,72805
757,974	-35,20253
758,161	81,32446
758,348	4,33519
758,535	162,46795
758,722	91,72789
758,91	41,79028
759,097	50,11342
759,284	-3,98839
759,471	66,75945
759,658	-6,0693
759,845	64,67871
760,032	127,09863
760,219	104,21184
760,406	-10,23113
760,593	118,77623
760,78	54,27495
760,967	-89,30977
761,154	108,37312
761,341	70,9209
761,528	31,38625
761,715	4,33519
761,901	89,64721
762,088	27,22461
762,275	0,17341
762,462	33,46707
762,649	149,98482
762,835	-12,31205
763,022	172,87043
763,209	-10,23113
763,396	23,06294
763,582	77,16305
763,769	116,69562
763,956	125,01804
764,142	100,05054
764,329	37,62869
764,516	93,80856
764,702	135,42095
764,889	10,57782
765,075	31,38625
765,262	-33,12155
765,448	127,09863
765,635	14,73954
765,821	64,67871
766,008	16,8204
766,194	131,2598
766,381	147,90429
766,567	37,62869
766,754	83,40515
766,94	114,615
767,127	95,88923
767,313	29,30543
767,499	50,11342
767,686	114,615
767,872	170,78994
768,058	29,30543
768,244	83,40515
768,431	81,32446
768,617	50,11342
768,803	108,37312
768,989	104,21184
769,176	73,00162
769,362	66,75945
769,548	27,22461
769,734	93,80856
769,92	4,33519
770,106	66,75945
770,292	152,06536
770,478	18,90125
770,664	106,29248
770,851	120,85684
771,037	-31,04058
771,223	77,16305
771,409	64,67871
771,594	45,95186
771,78	75,08234
771,966	193,67501
772,152	-26,87865
772,338	62,59797
772,524	50,11342
772,71	131,2598
772,896	218,63988
773,082	125,01804
773,267	45,95186
773,453	35,54788
773,639	29,30543
773,825	89,64721
774,011	131,2598
774,196	75,08234
774,382	27,22461
774,568	29,30543
774,753	37,62869
774,939	120,85684
775,125	68,84018
775,31	131,2598
775,496	41,79028
775,681	54,27495
775,867	50,11342
776,053	89,64721
776,238	33,46707
776,424	97,96989
776,609	-58,09363
776,795	35,54788
776,98	120,85684
777,166	77,16305
777,351	133,34038
777,536	27,22461
777,722	6,41607
777,907	16,8204
778,093	48,03264
778,278	6,41607
778,463	89,64721
778,649	8,49694
778,834	64,67871
779,019	95,88923
779,204	4,33519
779,39	91,72789
779,575	131,2598
779,76	95,88923
779,945	87,56653
780,13	87,56653
780,316	114,615
780,501	20,9821
780,686	4,33519
780,871	0,17341
781,056	83,40515
781,241	75,08234
781,426	116,69562
781,611	-28,95961
781,796	89,64721
781,981	143,74319
782,166	31,38625
782,351	102,1312
782,536	87,56653
782,721	62,59797
782,906	18,90125
783,091	-16,47391
783,276	64,67871
783,461	137,50152
783,646	158,30693
783,83	18,90125
784,015	73,00162
784,2	25,14378
784,385	41,79028
784,57	93,80856
784,754	135,42095
784,939	62,59797
785,124	48,03264
785,308	64,67871
785,493	-14,39298
785,678	39,70949
785,862	4,33519
786,047	58,43647
786,232	100,05054
786,416	-1,90749
786,601	-37,28351
786,785	16,8204
786,97	27,22461
787,154	39,70949
787,339	75,08234
787,523	129,17922
787,708	60,51722
787,892	64,67871
788,077	116,69562
788,261	43,87107
788,446	191,59458
788,63	-10,23113
788,814	58,43647
788,999	73,00162
789,183	122,93744
789,367	-26,87865
789,552	137,50152
789,736	160,38744
789,92	91,72789
790,104	125,01804
790,289	62,59797
790,473	16,8204
790,657	147,90429
790,841	110,45375
791,025	106,29248
791,21	91,72789
791,394	-14,39298
791,578	62,59797
791,762	56,35572
791,946	29,30543
792,13	-10,23113
792,314	102,1312
792,498	54,27495
792,682	154,14589
792,866	25,14378
793,05	45,95186
793,234	85,48584
793,418	4,33519
793,602	16,8204
793,786	14,73954
793,97	137,50152
794,153	106,29248
794,337	-95,55314
794,521	18,90125
794,705	95,88923
794,889	79,24376
795,073	62,59797
795,256	137,50152
795,44	43,87107
795,624	58,43647
795,807	45,95186
795,991	79,24376
796,175	50,11342
796,358	147,90429
796,542	68,84018
796,726	166,62896
796,909	50,11342
797,093	102,1312
797,277	62,59797
797,46	-1,90749
797,644	23,06294
797,827	6,41607
798,011	10,57782
798,194	-37,28351
798,378	125,01804
798,561	29,30543
798,744	91,72789
798,928	27,22461
799,111	-3,98839
799,295	10,57782
799,478	-28,95961
799,661	89,64721
799,845	-6,0693
800,028	79,24376
800,211	60,51722
800,395	100,05054
800,578	-12,31205
800,761	43,87107
800,944	79,24376
801,127	10,57782
801,311	-26,87865
801,494	62,59797
801,677	-35,20253
801,86	50,11342
802,043	81,32446
802,226	141,66264
802,409	54,27495
802,593	29,30543
802,776	14,73954
802,959	58,43647
803,142	77,16305
803,325	-16,47391
803,508	20,9821
803,691	125,01804
803,874	-31,04058
804,056	77,16305
804,239	23,06294
804,422	41,79028
804,605	18,90125
804,788	77,16305
804,971	14,73954
805,154	120,85684
805,336	164,54846
805,519	10,57782
805,702	73,00162
805,885	20,9821
806,068	-49,76952
806,25	70,9209
806,433	23,06294
806,616	66,75945
806,798	-3,98839
806,981	81,32446
807,164	95,88923
807,346	79,24376
807,529	-43,5265
807,711	66,75945
807,894	58,43647
808,076	12,65868
808,259	112,53438
808,442	0,17341
808,624	10,57782
808,806	97,96989
808,989	87,56653
809,171	87,56653
809,354	14,73954
809,536	114,615
809,719	58,43647
809,901	83,40515
810,083	125,01804
810,266	83,40515
810,448	91,72789
810,63	27,22461
810,813	85,48584
810,995	52,19419
811,177	106,29248
811,359	43,87107
811,542	152,06536
811,724	131,2598
811,906	81,32446
812,088	-16,47391
812,27	6,41607
812,452	60,51722
812,634	95,88923
812,817	-41,4455
812,999	97,96989
813,181	-12,31205
813,363	102,1312
813,545	0,17341
813,727	6,41607
813,909	29,30543
814,091	45,95186
814,273	68,84018
814,455	77,16305
814,637	16,8204
814,818	66,75945
815	8,49694
815,182	139,58208
815,364	27,22461
815,546	60,51722
815,728	226,96134
815,909	23,06294
816,091	116,69562
816,273	52,19419
816,455	147,90429
816,636	139,58208
816,818	12,65868
817	122,93744
817,182	-22,71674
817,363	75,08234
817,545	37,62869
817,726	116,69562
817,908	79,24376
818,09	23,06294
818,271	122,93744
818,453	45,95186
818,634	48,03264
818,816	66,75945
818,997	50,11342
819,179	54,27495
819,36	75,08234
819,542	8,49694
819,723	81,32446
819,905	56,35572
820,086	66,75945
820,267	93,80856
820,449	60,51722
820,63	87,56653
820,811	87,56653
820,993	127,09863
821,174	289,36992
821,355	6,41607
821,536	133,34038
821,718	58,43647
821,899	31,38625
822,08	-58,09363
822,261	95,88923
822,442	2,2543
822,624	110,45375
822,805	62,59797
822,986	31,38625
823,167	91,72789
823,348	10,57782
823,529	93,80856
823,71	125,01804
823,891	4,33519
824,072	93,80856
824,253	73,00162
824,434	131,2598
824,615	48,03264
824,796	195,75544
824,977	118,77623
825,158	149,98482
825,339	0,17341
825,52	25,14378
825,7	204,07712
825,881	68,84018
826,062	-39,3645
826,243	-10,23113
826,424	-51,85054
826,604	33,46707
826,785	-6,0693
826,966	89,64721
827,147	-33,12155
827,327	162,46795
827,508	89,64721
827,689	43,87107
827,869	79,24376
828,05	93,80856
828,231	12,65868
828,411	108,37312
828,592	6,41607
828,772	91,72789
828,953	-26,87865
829,133	29,30543
829,314	64,67871
829,494	41,79028
829,675	89,64721
829,855	41,79028
830,036	75,08234
830,216	50,11342
830,396	-1,90749
830,577	8,49694
830,757	6,41607
830,938	52,19419
831,118	-22,71674
831,298	-12,31205
831,479	35,54788
831,659	100,05054
831,839	27,22461
832,019	106,29248
832,199	4,33519
832,38	31,38625
832,56	73,00162
832,74	56,35572
832,92	179,11185
833,1	50,11342
833,28	12,65868
833,461	54,27495
833,641	16,8204
833,821	62,59797
834,001	2,2543
834,181	120,85684
834,361	120,85684
834,541	60,51722
834,721	37,62869
834,901	89,64721
835,081	-16,47391
835,261	83,40515
835,44	168,70945
835,62	8,49694
835,8	145,82374
835,98	139,58208
836,16	81,32446
836,34	6,41607
836,52	-47,68851
836,699	91,72789
836,879	141,66264
837,059	70,9209
837,239	33,46707
837,418	-97,63427
837,598	35,54788
837,778	85,48584
837,957	4,33519
838,137	6,41607
838,317	-14,39298
838,496	43,87107
838,676	77,16305
838,855	-24,79769
839,035	133,34038
839,214	39,70949
839,394	89,64721
839,573	18,90125
839,753	48,03264
839,932	48,03264
840,112	29,30543
840,291	-8,15021
840,471	114,615
840,65	12,65868
840,829	120,85684
841,009	120,85684
841,188	93,80856
841,367	8,49694
841,547	145,82374
841,726	-91,39089
841,905	37,62869
842,085	48,03264
842,264	43,87107
842,443	-3,98839
842,622	164,54846
842,801	66,75945
842,981	33,46707
843,16	-26,87865
843,339	54,27495
843,518	75,08234
843,697	93,80856
843,876	-6,0693
844,055	54,27495
844,234	37,62869
844,413	35,54788
844,592	27,22461
844,771	-43,5265
844,95	83,40515
845,129	-70,57995
845,308	73,00162
845,487	43,87107
845,666	-41,4455
845,845	-10,23113
846,024	16,8204
846,202	-24,79769
846,381	-22,71674
846,56	-14,39298
846,739	66,75945
846,918	-51,85054
847,096	35,54788
847,275	222,80062
847,454	52,19419
847,633	122,93744
847,811	20,9821
847,99	131,2598
848,169	20,9821
848,347	35,54788
848,526	20,9821
848,704	91,72789
848,883	141,66264
849,062	37,62869
849,24	77,16305
849,419	83,40515
849,597	-18,55485
849,776	-6,0693
849,954	50,11342
850,133	-22,71674
850,311	-51,85054
850,49	0,17341
850,668	118,77623
850,846	-1,90749
851,025	-39,3645
851,203	62,59797
851,381	-68,49888
851,56	-10,23113
851,738	-16,47391
851,916	23,06294
852,095	66,75945
852,273	45,95186
852,451	50,11342
852,629	-1,90749
852,807	16,8204
852,986	68,84018
853,164	-49,76952
853,342	52,19419
853,52	41,79028
853,698	27,22461
853,876	2,2543
854,054	48,03264
854,232	81,32446
854,41	110,45375
854,588	60,51722
854,766	27,22461
854,944	91,72789
855,122	104,21184
855,3	135,42095
855,478	-1,90749
855,656	97,96989
855,834	2,2543
856,012	-12,31205
856,19	-1,90749
856,368	70,9209
856,545	-62,25572
856,723	97,96989
856,901	166,62896
857,079	54,27495
857,256	41,79028
857,434	25,14378
857,612	-8,15021
857,79	-14,39298
857,967	129,17922
858,145	114,615
858,323	43,87107
858,5	97,96989
858,678	81,32446
858,855	66,75945
859,033	137,50152
859,211	2,2543
859,388	-20,63579
859,566	50,11342
859,743	-14,39298
859,921	41,79028
860,098	102,1312
860,276	62,59797
860,453	77,16305
860,63	-39,3645
860,808	-43,5265
860,985	27,22461
861,162	70,9209
861,34	-39,3645
861,517	-101,79655
861,694	50,11342
861,872	56,35572
862,049	62,59797
862,226	60,51722
862,403	-33,12155
862,581	52,19419
862,758	-49,76952
862,935	50,11342
863,112	81,32446
863,289	-18,55485
863,467	106,29248
863,644	-64,33677
863,821	73,00162
863,998	33,46707
864,175	104,21184
864,352	108,37312
864,529	177,03138
864,706	66,75945
864,883	110,45375
865,06	-12,31205
865,237	172,87043
865,414	-1,90749
865,591	-18,55485
865,768	64,67871
865,944	166,62896
866,121	33,46707
866,298	120,85684
866,475	62,59797
866,652	133,34038
866,829	10,57782
867,005	6,41607
867,182	-12,31205
867,359	104,21184
867,536	89,64721
867,712	-6,0693
867,889	20,9821
868,066	62,59797
868,242	-137,17679
868,419	-41,4455
868,596	64,67871
868,772	41,79028
868,949	154,14589
869,125	-12,31205
869,302	56,35572
869,478	-16,47391
869,655	77,16305
869,831	112,53438
870,008	37,62869
870,184	174,95091
870,361	14,73954
870,537	2,2543
870,714	45,95186
870,89	-24,79769
871,066	-10,23113
871,243	79,24376
871,419	-31,04058
871,595	12,65868
871,772	-72,66102
871,948	-33,12155
872,124	4,33519
872,3	-68,49888
872,477	125,01804
872,653	97,96989
872,829	39,70949
873,005	66,75945
873,181	29,30543
873,357	89,64721
873,533	54,27495
873,71	141,66264
873,886	14,73954
874,062	58,43647
874,238	58,43647
874,414	29,30543
874,59	56,35572
874,766	20,9821
874,942	181,19232
875,118	10,57782
875,294	-41,4455
875,47	58,43647
875,645	-20,63579
875,821	-41,4455
875,997	152,06536
876,173	6,41607
876,349	2,2543
876,525	75,08234
876,7	-39,3645
876,876	-22,71674
877,052	41,79028
877,228	77,16305
877,403	-26,87865
877,579	31,38625
877,755	43,87107
877,931	48,03264
878,106	93,80856
878,282	16,8204
878,457	37,62869
878,633	31,38625
878,809	0,17341
878,984	39,70949
879,16	14,73954
879,335	29,30543
879,511	4,33519
879,686	2,2543
879,862	58,43647
880,037	75,08234
880,213	-16,47391
880,388	-16,47391
880,563	89,64721
880,739	10,57782
880,914	-39,3645
881,089	168,70945
881,265	106,29248
881,44	-53,93157
881,615	77,16305
881,791	18,90125
881,966	14,73954
882,141	16,8204
882,316	66,75945
882,492	89,64721
882,667	77,16305
882,842	16,8204
883,017	27,22461
883,192	39,70949
883,367	91,72789
883,542	73,00162
883,718	31,38625
883,893	73,00162
884,068	100,05054
884,243	35,54788
884,418	-28,95961
884,593	8,49694
884,768	108,37312
884,943	-60,17467
885,117	56,35572
885,292	104,21184
885,467	110,45375
885,642	-10,23113
885,817	125,01804
885,992	41,79028
886,167	100,05054
886,342	127,09863
886,516	133,34038
886,691	193,67501
886,866	89,64721
887,041	172,87043
887,215	168,70945
887,39	97,96989
887,565	110,45375
887,739	29,30543
887,914	37,62869
888,089	-101,79655
888,263	8,49694
888,438	18,90125
888,612	125,01804
888,787	41,79028
888,962	79,24376
889,136	6,41607
889,311	81,32446
889,485	2,2543
889,659	14,73954
889,834	108,37312
890,008	120,85684
890,183	-41,4455
890,357	-39,3645
890,532	-8,15021
890,706	172,87043
890,88	112,53438
891,055	35,54788
891,229	102,1312
891,403	89,64721
891,577	179,11185
891,752	75,08234
891,926	48,03264
892,1	106,29248
892,274	112,53438
892,449	-12,31205
892,623	18,90125
892,797	20,9821
892,971	-28,95961
893,145	37,62869
893,319	-70,57995
893,493	-22,71674
893,667	79,24376
893,841	145,82374
894,015	20,9821
894,189	75,08234
894,363	172,87043
894,537	-12,31205
894,711	87,56653
894,885	8,49694
895,059	48,03264
895,233	83,40515
895,407	12,65868
895,581	100,05054
895,755	35,54788
895,928	41,79028
896,102	31,38625
896,276	16,8204
896,45	-1,90749
896,623	-31,04058
896,797	-6,0693
896,971	-3,98839
897,145	68,84018
897,318	20,9821
897,492	43,87107
897,666	-14,39298
897,839	-28,95961
898,013	-60,17467
898,186	16,8204
898,36	2,2543
898,534	48,03264
898,707	20,9821
898,881	58,43647
899,054	31,38625
899,228	56,35572
899,401	12,65868
899,574	25,14378
899,748	64,67871
899,921	37,62869
900,095	33,46707
900,268	45,95186
900,441	64,67871
900,615	66,75945
900,788	41,79028
900,961	152,06536
901,135	4,33519
901,308	29,30543
901,481	52,19419
901,654	2,2543
901,828	-35,20253
902,001	58,43647
902,174	-12,31205
902,347	-39,3645
902,52	189,51413
902,693	-8,15021
902,866	168,70945
903,04	108,37312
903,213	23,06294
903,386	-12,31205
903,559	85,48584
903,732	-14,39298
903,905	68,84018
904,078	-74,74209
904,251	33,46707
904,424	-31,04058
904,596	-18,55485
904,769	81,32446
904,942	-10,23113
905,115	-1,90749
905,288	-6,0693
905,461	12,65868
905,634	16,8204
905,806	16,8204
905,979	70,9209
906,152	14,73954
906,325	-12,31205
906,497	39,70949
906,67	93,80856
906,843	-37,28351
907,015	-45,6075
907,188	12,65868
907,361	-33,12155
907,533	56,35572
907,706	-53,93157
907,878	16,8204
908,051	58,43647
908,224	18,90125
908,396	-12,31205
908,569	4,33519
908,741	31,38625
908,914	226,96134
909,086	97,96989
909,258	41,79028
909,431	-3,98839
909,603	0,17341
909,776	110,45375
909,948	4,33519
910,12	114,615
910,293	0,17341
910,465	73,00162
910,637	27,22461
910,81	116,69562
910,982	-3,98839
911,154	31,38625
911,326	33,46707
911,498	35,54788
911,671	52,19419
911,843	-78,90426
912,015	-28,95961
912,187	31,38625
912,359	73,00162
912,531	48,03264
912,703	54,27495
912,875	0,17341
913,047	4,33519
913,219	237,36307
913,391	-53,93157
913,563	16,8204
913,735	27,22461
913,907	70,9209
914,079	66,75945
914,251	8,49694
914,423	6,41607
914,595	-31,04058
914,767	16,8204
914,939	81,32446
915,11	43,87107
915,282	37,62869
915,454	23,06294
915,626	14,73954
915,797	-12,31205
915,969	6,41607
916,141	83,40515
916,313	41,79028
916,484	100,05054
916,656	70,9209
916,828	-99,71541
916,999	93,80856
917,171	-10,23113
917,342	-26,87865
917,514	79,24376
917,685	85,48584
917,857	2,2543
918,028	-41,4455
918,2	-8,15021
918,371	-24,79769
918,543	60,51722
918,714	-97,63427
918,886	85,48584
919,057	-43,5265
919,229	-14,39298
919,4	6,41607
919,571	110,45375
919,743	-22,71674
919,914	70,9209
920,085	64,67871
920,256	-12,31205
920,428	-1,90749
920,599	77,16305
920,77	50,11342
920,941	149,98482
921,113	137,50152
921,284	87,56653
921,455	39,70949
921,626	-35,20253
921,797	31,38625
921,968	91,72789
922,139	0,17341
922,31	108,37312
922,481	16,8204
922,652	25,14378
922,823	56,35572
922,994	-47,68851
923,165	39,70949
923,336	81,32446
923,507	160,38744
923,678	75,08234
923,849	-10,23113
924,02	12,65868
924,191	8,49694
924,362	-35,20253
924,532	-10,23113
924,703	62,59797
924,874	-62,25572
925,045	14,73954
925,215	-3,98839
925,386	8,49694
925,557	50,11342
925,728	-3,98839
925,898	-37,28351
926,069	-28,95961
926,24	110,45375
926,41	-22,71674
926,581	-53,93157
926,751	-16,47391
926,922	87,56653
927,092	-39,3645
927,263	35,54788
927,433	45,95186
927,604	-72,66102
927,774	-53,93157
927,945	52,19419
928,115	118,77623
928,286	8,49694
928,456	73,00162
928,627	16,8204
928,797	52,19419
928,967	18,90125
929,138	14,73954
929,308	4,33519
929,478	52,19419
929,648	14,73954
929,819	106,29248
929,989	4,33519
930,159	54,27495
930,329	52,19419
930,5	141,66264
930,67	-12,31205
930,84	-62,25572
931,01	58,43647
931,18	77,16305
931,35	68,84018
931,52	20,9821
931,69	54,27495
931,86	35,54788
932,03	31,38625
932,2	6,41607
932,37	-8,15021
932,54	83,40515
932,71	31,38625
932,88	37,62869
933,05	104,21184
933,22	-31,04058
933,39	-22,71674
933,56	100,05054
933,73	-28,95961
933,899	0,17341
934,069	-51,85054
934,239	73,00162
934,409	-22,71674
934,578	54,27495
934,748	18,90125
934,918	29,30543
935,088	12,65868
935,257	-10,23113
935,427	87,56653
935,596	-31,04058
935,766	50,11342
935,936	100,05054
936,105	-8,15021
936,275	20,9821
936,444	-14,39298
936,614	-18,55485
936,783	31,38625
936,953	31,38625
937,122	-53,93157
937,292	-51,85054
937,461	62,59797
937,631	-41,4455
937,8	129,17922
937,969	8,49694
938,139	100,05054
938,308	108,37312
938,477	14,73954
938,647	-37,28351
938,816	102,1312
938,985	-76,82318
939,155	18,90125
939,324	12,65868
939,493	-45,6075
939,662	56,35572
939,831	66,75945
940,001	56,35572
940,17	16,8204
940,339	29,30543
940,508	0,17341
940,677	97,96989
940,846	125,01804
941,015	10,57782
941,184	66,75945
941,353	-26,87865
941,522	-24,79769
941,691	139,58208
941,86	35,54788
942,029	-1,90749
942,198	87,56653
942,367	14,73954
942,536	50,11342
942,705	-56,0126
942,873	-78,90426
943,042	29,30543
943,211	8,49694
943,38	56,35572
943,549	56,35572
943,717	41,79028
943,886	70,9209
944,055	-26,87865
944,224	70,9209
944,392	120,85684
944,561	6,41607
944,73	0,17341
944,898	54,27495
945,067	4,33519
945,235	41,79028
945,404	12,65868
945,572	97,96989
945,741	-70,57995
945,91	-58,09363
946,078	-93,47201
946,247	12,65868
946,415	62,59797
946,583	-24,79769
946,752	-1,90749
946,92	-33,12155
947,089	133,34038
947,257	-8,15021
947,425	2,2543
947,594	58,43647
947,762	-31,04058
947,93	6,41607
948,099	-6,0693
948,267	68,84018
948,435	64,67871
948,603	2,2543
948,772	-41,4455
948,94	10,57782
949,108	35,54788
949,276	-41,4455
949,444	-1,90749
949,612	39,70949
949,78	18,90125
949,948	18,90125
950,116	6,41607
950,285	137,50152
950,453	108,37312
950,621	-10,23113
950,789	52,19419
950,957	54,27495
951,124	83,40515
951,292	68,84018
951,46	-66,41782
951,628	-10,23113
951,796	66,75945
951,964	-22,71674
952,132	-56,0126
952,3	-47,68851
952,467	-58,09363
952,635	122,93744
952,803	27,22461
952,971	-31,04058
953,138	48,03264
953,306	-51,85054
953,474	108,37312
953,641	-1,90749
953,809	-64,33677
953,977	54,27495
954,144	58,43647
954,312	110,45375
954,48	29,30543
954,647	89,64721
954,815	120,85684
954,982	2,2543
955,15	39,70949
955,317	4,33519
955,485	-24,79769
955,652	33,46707
955,82	73,00162
955,987	0,17341
956,154	83,40515
956,322	56,35572
956,489	60,51722
956,656	-74,74209
956,824	2,2543
956,991	31,38625
957,158	33,46707
957,326	18,90125
957,493	172,87043
957,66	31,38625
957,827	70,9209
957,994	2,2543
958,162	-6,0693
958,329	95,88923
958,496	-95,55314
958,663	12,65868
958,83	110,45375
958,997	102,1312
959,164	50,11342
959,331	4,33519
959,498	25,14378
959,665	43,87107
959,832	43,87107
959,999	60,51722
960,166	166,62896
960,333	-22,71674
960,5	106,29248
960,667	156,22641
960,834	2,2543
961,001	27,22461
961,168	52,19419
961,334	-3,98839
961,501	95,88923
961,668	97,96989
961,835	-35,20253
962,002	-14,39298
962,168	-45,6075
962,335	-45,6075
962,502	29,30543
962,668	20,9821
962,835	-10,23113
963,002	79,24376
963,168	8,49694
963,335	41,79028
963,502	62,59797
963,668	-16,47391
963,835	0,17341
964,001	52,19419
964,168	14,73954
964,334	-37,28351
964,501	-31,04058
964,667	6,41607
964,834	14,73954
965	20,9821
965,166	120,85684
965,333	-35,20253
965,499	-16,47391
965,665	162,46795
965,832	16,8204
965,998	-58,09363
966,164	-53,93157
966,331	52,19419
966,497	91,72789
966,663	-80,98535
966,829	106,29248
966,996	137,50152
967,162	-22,71674
967,328	-6,0693
967,494	10,57782
967,66	29,30543
967,826	79,24376
967,992	-101,79655
968,158	-6,0693
968,324	2,2543
968,491	0,17341
968,657	45,95186
968,823	-41,4455
968,988	110,45375
969,154	31,38625
969,32	18,90125
969,486	20,9821
969,652	85,48584
969,818	60,51722
969,984	8,49694
970,15	68,84018
970,316	54,27495
970,481	-18,55485
970,647	81,32446
970,813	-22,71674
970,979	56,35572
971,144	29,30543
971,31	20,9821
971,476	4,33519
971,642	39,70949
971,807	45,95186
971,973	12,65868
972,138	20,9821
972,304	45,95186
972,47	-49,76952
972,635	25,14378
972,801	166,62896
972,966	-74,74209
973,132	4,33519
973,297	6,41607
973,463	-47,68851
973,628	39,70949
973,794	-22,71674
973,959	29,30543
974,125	54,27495
974,29	6,41607
974,455	-120,52708
974,621	43,87107
974,786	108,37312
974,951	-28,95961
975,117	58,43647
975,282	0,17341
975,447	18,90125
975,612	102,1312
975,778	-16,47391
975,943	43,87107
976,108	56,35572
976,273	-10,23113
976,438	73,00162
976,603	18,90125
976,768	64,67871
976,934	87,56653
977,099	0,17341
977,264	58,43647
977,429	23,06294
977,594	-28,95961
977,759	108,37312
977,924	48,03264
978,089	-14,39298
978,254	104,21184
978,418	79,24376
978,583	68,84018
978,748	58,43647
978,913	-47,68851
979,078	45,95186
979,243	58,43647
979,408	160,38744
979,572	-6,0693
979,737	122,93744
979,902	-62,25572
980,067	6,41607
980,231	6,41607
980,396	-6,0693
980,561	-49,76952
980,725	58,43647
980,89	-37,28351
981,055	-49,76952
981,219	-18,55485
981,384	77,16305
981,548	18,90125
981,713	45,95186
981,877	-43,5265
982,042	16,8204
982,206	35,54788
982,371	-85,14755
982,535	-3,98839
982,7	453,69236
982,864	2,2543
983,029	-47,68851
983,193	-20,63579
983,357	29,30543
983,522	37,62869
983,686	-76,82318
983,85	27,22461
984,015	12,65868
984,179	87,56653
984,343	-53,93157
984,507	54,27495
984,672	68,84018
984,836	4,33519
985	62,59797
985,164	-8,15021
985,328	41,79028
985,492	23,06294
985,656	83,40515
985,821	79,24376
985,985	-31,04058
986,149	64,67871
986,313	-87,22866
986,477	-18,55485
986,641	-53,93157
986,805	60,51722
986,969	-62,25572
987,133	29,30543
987,296	-74,74209
987,46	37,62869
987,624	77,16305
987,788	25,14378
987,952	54,27495
988,116	68,84018
988,28	-53,93157
988,443	110,45375
988,607	-47,68851
988,771	-33,12155
988,935	81,32446
989,098	-41,4455
989,262	-6,0693
989,426	-35,20253
989,589	81,32446
989,753	-53,93157
989,917	43,87107
990,08	73,00162
990,244	8,49694
990,407	-53,93157
990,571	33,46707
990,734	60,51722
990,898	-49,76952
991,061	27,22461
991,225	4,33519
991,388	-6,0693
991,552	118,77623
991,715	2,2543
991,878	-18,55485
992,042	79,24376
992,205	68,84018
992,369	-76,82318
992,532	64,67871
992,695	0,17341
992,858	116,69562
993,022	93,80856
993,185	37,62869
993,348	-12,31205
993,511	97,96989
993,675	-56,0126
993,838	14,73954
994,001	12,65868
994,164	29,30543
994,327	25,14378
994,49	23,06294
994,653	25,14378
994,816	54,27495
994,979	108,37312
995,142	-6,0693
995,305	62,59797
995,468	-35,20253
995,631	-12,31205
995,794	68,84018
995,957	-6,0693
996,12	116,69562
996,283	66,75945
996,446	70,9209
996,609	23,06294
996,772	64,67871
996,934	64,67871
997,097	-1,90749
997,26	-62,25572
997,423	91,72789
997,585	-41,4455
997,748	-3,98839
997,911	4,33519
998,074	75,08234
998,236	-35,20253
998,399	-18,55485
998,561	4,33519
998,724	149,98482
998,887	68,84018
999,049	20,9821
999,212	-12,31205
999,374	-53,93157
999,537	-1,90749
999,699	-18,55485
999,862	41,79028
1000,024	-20,63579
1000,187	-45,6075
1000,349	-20,63579
1000,512	0,17341
1000,674	18,90125
1000,836	0,17341
1000,999	120,85684
1001,161	29,30543
1001,323	43,87107
1001,486	-85,14755
1001,648	2,2543
1001,81	41,79028
1001,972	-24,79769
1002,134	-10,23113
1002,297	112,53438
1002,459	56,35572
1002,621	-64,33677
1002,783	-10,23113
1002,945	-70,57995
1003,107	-49,76952
1003,269	108,37312
1003,432	73,00162
1003,594	66,75945
1003,756	25,14378
1003,918	156,22641
1004,08	31,38625
1004,242	162,46795
1004,404	81,32446
1004,565	39,70949
1004,727	87,56653
1004,889	-41,4455
1005,051	50,11342
1005,213	79,24376
1005,375	-58,09363
1005,537	29,30543
1005,698	64,67871
1005,86	81,32446
1006,022	62,59797
1006,184	23,06294
1006,345	100,05054
1006,507	-41,4455
1006,669	-58,09363
1006,831	12,65868
1006,992	-58,09363
1007,154	18,90125
1007,315	-72,66102
1007,477	77,16305
1007,639	70,9209
1007,8	39,70949
1007,962	-14,39298
1008,123	18,90125
1008,285	35,54788
1008,446	70,9209
1008,608	-87,22866
1008,769	168,70945
1008,931	-114,28352
1009,092	-76,82318
1009,253	41,79028
1009,415	70,9209
1009,576	-31,04058
1009,737	-105,95886
1009,899	37,62869
1010,06	31,38625
1010,221	-78,90426
1010,382	64,67871
1010,544	-14,39298
1010,705	0,17341
1010,866	137,50152
1011,027	33,46707
1011,188	-20,63579
1011,35	48,03264
1011,511	-47,68851
1011,672	-28,95961
1011,833	14,73954
1011,994	112,53438
1012,155	-12,31205
1012,316	-47,68851
1012,477	95,88923
1012,638	25,14378
1012,799	33,46707
1012,96	70,9209
1013,121	-26,87865
1013,282	33,46707
1013,443	127,09863
1013,604	97,96989
1013,765	-45,6075
1013,925	16,8204
1014,086	64,67871
1014,247	6,41607
1014,408	108,37312
1014,569	25,14378
1014,729	-1,90749
1014,89	41,79028
1015,051	-33,12155
1015,211	35,54788
1015,372	-31,04058
1015,533	145,82374
1015,693	-6,0693
1015,854	-18,55485
1016,015	18,90125
1016,175	73,00162
1016,336	41,79028
1016,496	85,48584
1016,657	-20,63579
1016,817	18,90125
1016,978	20,9821
1017,138	193,67501
1017,299	97,96989
1017,459	-83,06645
1017,62	43,87107
1017,78	25,14378
1017,94	-22,71674
1018,101	29,30543
1018,261	10,57782
1018,421	-14,39298
1018,582	27,22461
1018,742	97,96989
1018,902	0,17341
1019,062	23,06294
1019,223	-89,30977
1019,383	23,06294
1019,543	4,33519
1019,703	106,29248
1019,863	-12,31205
1020,023	52,19419
1020,184	8,49694
1020,344	-33,12155
1020,504	20,9821
1020,664	-3,98839
1020,824	-1,90749
1020,984	-26,87865
1021,144	68,84018
1021,304	-20,63579
1021,464	-33,12155
1021,624	54,27495
1021,784	-41,4455
1021,943	93,80856
1022,103	-3,98839
1022,263	-110,12118
1022,423	-33,12155
1022,583	-60,17467
1022,743	23,06294
1022,902	4,33519
1023,062	-49,76952
1023,222	39,70949
1023,382	33,46707
1023,541	95,88923
1023,701	45,95186
1023,861	6,41607
1024,02	54,27495
1024,18	39,70949
1024,34	45,95186
1024,499	-8,15021
1024,659	104,21184
1024,818	16,8204
1024,978	-3,98839
1025,137	62,59797
1025,297	14,73954
1025,456	75,08234
1025,616	60,51722
1025,775	-95,55314
1025,935	133,34038
1026,094	100,05054
1026,254	-22,71674
1026,413	-35,20253
1026,572	29,30543
1026,732	-39,3645
1026,891	39,70949
1027,05	23,06294
1027,21	75,08234
1027,369	54,27495
1027,528	43,87107
1027,687	75,08234
1027,846	16,8204
1028,006	-1,90749
1028,165	-58,09363
1028,324	56,35572
1028,483	31,38625
1028,642	35,54788
1028,801	12,65868
1028,96	97,96989
1029,119	12,65868
1029,278	-8,15021
1029,437	-22,71674
1029,596	16,8204
1029,755	-37,28351
1029,914	79,24376
1030,073	31,38625
1030,232	60,51722
1030,391	-47,68851
1030,55	-16,47391
1030,709	-16,47391
1030,868	0,17341
1031,026	48,03264
1031,185	-47,68851
1031,344	-1,90749
1031,503	23,06294
1031,662	27,22461
1031,82	29,30543
1031,979	77,16305
1032,138	149,98482
1032,296	50,11342
1032,455	2,2543
1032,614	145,82374
1032,772	39,70949
1032,931	-18,55485
1033,089	14,73954
1033,248	39,70949
1033,407	-37,28351
1033,565	62,59797
1033,724	54,27495
1033,882	179,11185
1034,04	87,56653
1034,199	66,75945
1034,357	58,43647
1034,516	-20,63579
1034,674	25,14378
1034,832	79,24376
1034,991	2,2543
1035,149	-22,71674
1035,307	0,17341
1035,466	64,67871
1035,624	0,17341
1035,782	39,70949
1035,941	135,42095
1036,099	39,70949
1036,257	79,24376
1036,415	56,35572
1036,573	0,17341
1036,731	-39,3645
1036,889	75,08234
1037,048	50,11342
1037,206	100,05054
1037,364	-22,71674
1037,522	2,2543
1037,68	-18,55485
1037,838	6,41607
1037,996	6,41607
1038,154	6,41607
