345,274	-188,51553
345,493	-188,51553
345,712	-188,51553
345,932	-275,93761
346,151	11,27144
346,37	-101,10284
346,59	-28,26596
346,809	23,75655
347,028	-86,53496
347,247	73,6952
347,467	29,99904
347,686	11,27144
347,905	21,67571
348,124	57,0493
348,343	42,48388
348,563	-55,31892
348,782	27,91822
349,001	65,37229
349,22	-3,29476
349,439	-24,10404
349,658	-51,15687
349,877	-88,61607
350,096	-74,0484
350,315	27,91822
350,534	67,45302
350,753	88,26009
350,972	-30,34692
351,191	-11,61841
351,41	36,24148
351,629	5,02881
351,848	44,56467
352,067	11,27144
352,286	-5,37566
352,505	15,43316
352,724	-13,69933
352,943	-30,34692
353,162	44,56467
353,381	-26,18499
353,599	-3,29476
353,818	40,40309
354,037	15,43316
354,256	86,17941
354,475	92,42145
354,693	32,07986
354,912	25,83739
355,131	-153,13308
355,35	19,59487
355,568	104,90539
355,787	-15,78026
356,006	29,99904
356,224	-1,21386
356,443	57,0493
356,661	-9,53749
356,88	17,51402
357,099	-51,15687
357,317	-28,26596
357,536	-24,10404
357,754	59,13006
357,973	63,29155
358,191	-3,29476
358,41	-9,53749
358,628	13,3523
358,847	25,83739
359,065	23,75655
359,284	-76,12948
359,502	67,45302
359,721	11,27144
359,939	-11,61841
360,157	96,58278
360,376	-11,61841
360,594	-44,91383
360,813	-26,18499
361,031	94,50212
361,249	40,40309
361,467	69,53375
361,686	-34,50887
361,904	34,16067
362,122	-5,37566
362,341	-24,10404
362,559	48,72623
362,777	-49,07585
362,995	38,32229
363,213	32,07986
363,431	59,13006
363,65	54,96854
363,868	-40,75183
364,086	77,85662
364,304	-49,07585
364,522	121,55037
364,74	36,24148
364,958	-3,29476
365,176	-92,7783
365,394	34,16067
365,612	19,59487
365,83	73,6952
366,048	69,53375
366,266	5,02881
366,484	5,02881
366,702	65,37229
366,92	42,48388
367,138	-67,80519
367,356	32,07986
367,574	111,1473
367,792	46,64546
368,01	34,16067
368,227	34,16067
368,445	0,86704
368,663	23,75655
368,881	19,59487
369,099	-3,29476
369,316	-78,21057
369,534	59,13006
369,752	-36,58985
369,97	-71,96733
370,187	-113,5898
370,405	90,34077
370,623	17,51402
370,84	-30,34692
371,058	7,10969
371,276	-22,02309
371,493	-3,29476
371,711	46,64546
371,928	-38,67084
372,146	-32,42789
372,364	-5,37566
372,581	102,82475
372,799	23,75655
373,016	-5,37566
373,234	54,96854
373,451	-17,8612
373,669	-55,31892
373,886	-61,56203
374,103	127,79216
374,321	52,88778
374,538	-7,45657
374,756	-17,8612
374,973	27,91822
375,19	-13,69933
375,408	-96,94056
375,625	25,83739
375,842	59,13006
376,06	27,91822
376,277	-76,12948
376,494	61,2108
376,712	-24,10404
376,929	5,02881
377,146	48,72623
377,363	-40,75183
377,581	57,0493
377,798	67,45302
378,015	15,43316
378,232	-90,69718
378,449	9,19057
378,666	-24,10404
378,883	-19,94214
379,101	17,51402
379,318	-86,53496
379,535	-44,91383
379,752	17,51402
379,969	19,59487
380,186	-44,91383
380,403	94,50212
380,62	-13,69933
380,837	-49,07585
381,054	82,01802
381,271	86,17941
381,488	-46,99484
381,705	-105,26514
381,921	-53,23789
382,138	75,77591
382,355	52,88778
382,572	-9,53749
382,789	-42,83283
383,006	57,0493
383,223	17,51402
383,439	98,66344
383,656	-3,29476
383,873	17,51402
384,09	-86,53496
384,306	42,48388
384,523	-32,42789
384,74	90,34077
384,957	0,86704
385,173	-22,02309
385,39	-32,42789
385,607	5,02881
385,823	46,64546
386,04	0,86704
386,256	-30,34692
386,473	29,99904
386,69	-84,45385
386,906	-55,31892
387,123	0,86704
387,339	-13,69933
387,556	7,10969
387,772	-3,29476
387,989	57,0493
388,205	17,51402
388,422	44,56467
388,638	-65,72414
388,855	2,94793
389,071	38,32229
389,287	-7,45657
389,504	61,2108
389,72	42,48388
389,937	36,24148
390,153	23,75655
390,369	63,29155
390,585	-26,18499
390,802	34,16067
391,018	-42,83283
391,234	-24,10404
391,451	-84,45385
391,667	9,19057
391,883	79,93732
392,099	38,32229
392,315	-19,94214
392,532	-69,88626
392,748	-36,58985
392,964	32,07986
393,18	131,95333
393,396	7,10969
393,612	2,94793
393,828	-26,18499
394,044	17,51402
394,26	92,42145
394,477	-19,94214
394,693	11,27144
394,909	-61,56203
395,125	104,90539
395,341	79,93732
395,557	73,6952
395,772	52,88778
395,988	123,63097
396,204	32,07986
396,42	23,75655
396,636	104,90539
396,852	19,59487
397,068	38,32229
397,284	-15,78026
397,5	59,13006
397,715	-5,37566
397,931	-5,37566
398,147	44,56467
398,363	13,3523
398,578	84,09872
398,794	-17,8612
399,01	44,56467
399,226	36,24148
399,441	-63,64308
399,657	-3,29476
399,873	-40,75183
400,088	40,40309
400,304	52,88778
400,52	73,6952
400,735	-5,37566
400,951	117,38916
401,166	88,26009
401,382	27,91822
401,597	29,99904
401,813	86,17941
402,029	54,96854
402,244	-46,99484
402,46	106,98603
402,675	19,59487
402,89	61,2108
403,106	57,0493
403,321	86,17941
403,537	-44,91383
403,752	-17,8612
403,968	44,56467
404,183	79,93732
404,398	-51,15687
404,614	-5,37566
404,829	46,64546
405,044	-17,8612
405,26	90,34077
405,475	63,29155
405,69	-5,37566
405,905	-46,99484
406,121	25,83739
406,336	29,99904
406,551	32,07986
406,766	7,10969
406,981	7,10969
407,196	-36,58985
407,412	15,43316
407,627	-32,42789
407,842	34,16067
408,057	92,42145
408,272	7,10969
408,487	9,19057
408,702	34,16067
408,917	42,48388
409,132	25,83739
409,347	-49,07585
409,562	-49,07585
409,777	-65,72414
409,992	-28,26596
410,207	25,83739
410,422	96,58278
410,637	21,67571
410,852	-36,58985
411,067	131,95333
411,282	-44,91383
411,496	23,75655
411,711	52,88778
411,926	11,27144
412,141	42,48388
412,356	-17,8612
412,571	5,02881
412,785	-51,15687
413	32,07986
413,215	9,19057
413,429	-7,45657
413,644	48,72623
413,859	-7,45657
414,074	34,16067
414,288	34,16067
414,503	-49,07585
414,718	13,3523
414,932	92,42145
415,147	-44,91383
415,361	50,80701
415,576	-53,23789
415,79	-30,34692
416,005	59,13006
416,22	19,59487
416,434	-3,29476
416,649	-1,21386
416,863	-42,83283
417,077	-103,18399
417,292	23,75655
417,506	115,30854
417,721	-24,10404
417,935	121,55037
418,15	-26,18499
418,364	-24,10404
418,578	17,51402
418,793	-7,45657
419,007	-1,21386
419,221	34,16067
419,436	38,32229
419,65	100,7441
419,864	38,32229
420,078	104,90539
420,293	46,64546
420,507	-17,8612
420,721	0,86704
420,935	65,37229
421,149	7,10969
421,364	-1,21386
421,578	29,99904
421,792	50,80701
422,006	0,86704
422,22	25,83739
422,434	71,61448
422,648	-63,64308
422,862	125,71157
423,076	-49,07585
423,29	71,61448
423,504	-17,8612
423,718	40,40309
423,932	17,51402
424,146	-111,50863
424,36	-76,12948
424,574	96,58278
424,788	42,48388
425,002	88,26009
425,216	-22,02309
425,43	38,32229
425,644	94,50212
425,858	0,86704
426,071	7,10969
426,285	44,56467
426,499	123,63097
426,713	32,07986
426,927	5,02881
427,14	13,3523
427,354	144,43671
427,568	-49,07585
427,782	88,26009
427,995	73,6952
428,209	-9,53749
428,423	-17,8612
428,636	-69,88626
428,85	2,94793
429,063	25,83739
429,277	146,51726
429,491	-36,58985
429,704	-5,37566
429,918	-1,21386
430,131	46,64546
430,345	-1,21386
430,558	-22,02309
430,772	11,27144
430,985	-32,42789
431,199	32,07986
431,412	-65,72414
431,626	-17,8612
431,839	-88,61607
432,053	88,26009
432,266	63,29155
432,479	59,13006
432,693	121,55037
432,906	7,10969
433,119	-30,34692
433,333	-71,96733
433,546	5,02881
433,759	57,0493
433,973	42,48388
434,186	-1,21386
434,399	52,88778
434,612	94,50212
434,825	67,45302
435,039	21,67571
435,252	29,99904
435,465	57,0493
435,678	7,10969
435,891	-19,94214
436,104	-55,31892
436,318	-9,53749
436,531	-78,21057
436,744	29,99904
436,957	61,2108
437,17	-55,31892
437,383	-40,75183
437,596	-13,69933
437,809	11,27144
438,022	-59,48099
438,235	36,24148
438,448	88,26009
438,661	44,56467
438,874	52,88778
439,086	-36,58985
439,299	-22,02309
439,512	106,98603
439,725	82,01802
439,938	-42,83283
440,151	-34,50887
440,364	-13,69933
440,576	17,51402
440,789	-19,94214
441,002	-32,42789
441,215	75,77591
441,427	-9,53749
441,64	-28,26596
441,853	57,0493
442,066	-28,26596
442,278	0,86704
442,491	50,80701
442,704	57,0493
442,916	59,13006
443,129	115,30854
443,341	21,67571
443,554	92,42145
443,767	-65,72414
443,979	42,48388
444,192	113,22792
444,404	19,59487
444,617	54,96854
444,829	42,48388
445,042	96,58278
445,254	32,07986
445,467	-30,34692
445,679	94,50212
445,892	75,77591
446,104	27,91822
446,316	38,32229
446,529	-1,21386
446,741	19,59487
446,953	129,87275
447,166	-17,8612
447,378	2,94793
447,59	17,51402
447,803	-34,50887
448,015	44,56467
448,227	17,51402
448,439	-42,83283
448,652	-19,94214
448,864	104,90539
449,076	61,2108
449,288	-53,23789
449,5	-61,56203
449,712	32,07986
449,925	102,82475
450,137	-13,69933
450,349	48,72623
450,561	48,72623
450,773	-15,78026
450,985	-1,21386
451,197	-42,83283
451,409	-49,07585
451,621	17,51402
451,833	9,19057
452,045	-7,45657
452,257	46,64546
452,469	-40,75183
452,681	-57,39995
452,893	-24,10404
453,105	0,86704
453,317	32,07986
453,529	-19,94214
453,74	-119,83335
453,952	-74,0484
454,164	0,86704
454,376	13,3523
454,588	131,95333
454,799	48,72623
455,011	34,16067
455,223	29,99904
455,435	69,53375
455,646	100,7441
455,858	25,83739
456,07	84,09872
456,281	-9,53749
456,493	173,56392
456,705	92,42145
456,916	-69,88626
457,128	42,48388
457,34	-40,75183
457,551	71,61448
457,763	25,83739
457,974	-9,53749
458,186	21,67571
458,397	-28,26596
458,609	-26,18499
458,82	38,32229
459,032	-15,78026
459,243	82,01802
459,455	98,66344
459,666	-28,26596
459,878	61,2108
460,089	63,29155
460,3	34,16067
460,512	21,67571
460,723	27,91822
460,934	40,40309
461,146	65,37229
461,357	150,67834
461,568	-13,69933
461,78	-1,21386
461,991	59,13006
462,202	-57,39995
462,413	-7,45657
462,625	32,07986
462,836	42,48388
463,047	-61,56203
463,258	-49,07585
463,469	25,83739
463,68	-19,94214
463,891	84,09872
464,103	69,53375
464,314	21,67571
464,525	38,32229
464,736	69,53375
464,947	46,64546
465,158	-42,83283
465,369	-92,7783
465,58	-17,8612
465,791	-5,37566
466,002	19,59487
466,213	-11,61841
466,424	-7,45657
466,635	-82,37275
466,846	-38,67084
467,056	-59,48099
467,267	23,75655
467,478	-90,69718
467,689	54,96854
467,9	-9,53749
468,111	-40,75183
468,322	-107,3463
468,532	-15,78026
468,743	-22,02309
468,954	134,0339
469,165	-28,26596
469,375	0,86704
469,586	0,86704
469,797	161,08095
470,007	21,67571
470,218	-38,67084
470,429	-53,23789
470,639	54,96854
470,85	-38,67084
471,061	-30,34692
471,271	-71,96733
471,482	40,40309
471,692	-51,15687
471,903	-26,18499
472,113	-63,64308
472,324	19,59487
472,534	-74,0484
472,745	25,83739
472,955	-3,29476
473,166	-42,83283
473,376	27,91822
473,587	25,83739
473,797	-53,23789
474,007	69,53375
474,218	-57,39995
474,428	48,72623
474,638	-19,94214
474,849	36,24148
475,059	73,6952
475,269	-57,39995
475,48	42,48388
475,69	-1,21386
475,9	-51,15687
476,11	29,99904
476,321	63,29155
476,531	29,99904
476,741	54,96854
476,951	21,67571
477,161	-9,53749
477,371	44,56467
477,581	65,37229
477,792	-59,48099
478,002	86,17941
478,212	129,87275
478,422	44,56467
478,632	134,0339
478,842	-82,37275
479,052	11,27144
479,262	73,6952
479,472	77,85662
479,682	9,19057
479,892	-36,58985
480,102	69,53375
480,312	-15,78026
480,522	82,01802
480,731	29,99904
480,941	119,46977
481,151	-63,64308
481,361	50,80701
481,571	34,16067
481,781	102,82475
481,991	57,0493
482,2	-5,37566
482,41	-32,42789
482,62	-24,10404
482,83	27,91822
483,039	21,67571
483,249	-46,99484
483,459	5,02881
483,668	67,45302
483,878	65,37229
484,088	-5,37566
484,297	61,2108
484,507	2,94793
484,716	50,80701
484,926	42,48388
485,136	36,24148
485,345	48,72623
485,555	44,56467
485,764	88,26009
485,974	-28,26596
486,183	119,46977
486,393	125,71157
486,602	-9,53749
486,812	11,27144
487,021	77,85662
487,23	-59,48099
487,44	-40,75183
487,649	71,61448
487,859	119,46977
488,068	-92,7783
488,277	79,93732
488,487	38,32229
488,696	-26,18499
488,905	36,24148
489,115	-86,53496
489,324	77,85662
489,533	36,24148
489,742	-7,45657
489,951	90,34077
490,161	19,59487
490,37	-17,8612
490,579	-46,99484
490,788	17,51402
490,997	-69,88626
491,206	69,53375
491,415	-40,75183
491,625	36,24148
491,834	-57,39995
492,043	-22,02309
492,252	-1,21386
492,461	-36,58985
492,67	-9,53749
492,879	84,09872
493,088	-42,83283
493,297	59,13006
493,506	-34,50887
493,715	200,60977
493,924	-128,15816
494,132	50,80701
494,341	46,64546
494,55	71,61448
494,759	-15,78026
494,968	32,07986
495,177	-103,18399
495,386	119,46977
495,594	-22,02309
495,803	67,45302
496,012	59,13006
496,221	15,43316
496,429	69,53375
496,638	11,27144
496,847	71,61448
497,055	46,64546
497,264	-3,29476
497,473	65,37229
497,681	-13,69933
497,89	106,98603
498,099	-9,53749
498,307	7,10969
498,516	163,16146
498,724	32,07986
498,933	46,64546
499,141	-32,42789
499,35	34,16067
499,558	77,85662
499,767	-82,37275
499,975	-46,99484
500,184	-3,29476
500,392	-11,61841
500,601	-5,37566
500,809	38,32229
501,018	27,91822
501,226	52,88778
501,434	2,94793
501,643	15,43316
501,851	23,75655
502,059	-5,37566
502,268	106,98603
502,476	27,91822
502,684	84,09872
502,892	79,93732
503,101	94,50212
503,309	-24,10404
503,517	52,88778
503,725	-3,29476
503,933	-159,37693
504,141	-117,75216
504,35	-7,45657
504,558	-13,69933
504,766	-51,15687
504,974	46,64546
505,182	50,80701
505,39	84,09872
505,598	-1,21386
505,806	-7,45657
506,014	40,40309
506,222	63,29155
506,43	-19,94214
506,638	117,38916
506,846	-7,45657
507,054	21,67571
507,262	-55,31892
507,47	69,53375
507,678	0,86704
507,886	100,7441
508,094	90,34077
508,301	73,6952
508,509	23,75655
508,717	-53,23789
508,925	-36,58985
509,133	-11,61841
509,34	-40,75183
509,548	46,64546
509,756	-55,31892
509,964	156,91992
510,171	102,82475
510,379	-7,45657
510,587	-42,83283
510,794	2,94793
511,002	-86,53496
511,21	-26,18499
511,417	13,3523
511,625	159,00044
511,832	-5,37566
512,04	-46,99484
512,247	-44,91383
512,455	-71,96733
512,663	88,26009
512,87	48,72623
513,078	-51,15687
513,285	-30,34692
513,492	-13,69933
513,7	-22,02309
513,907	-36,58985
514,115	-40,75183
514,322	23,75655
514,529	-17,8612
514,737	-76,12948
514,944	-38,67084
515,152	67,45302
515,359	-32,42789
515,566	29,99904
515,773	50,80701
515,981	-67,80519
516,188	-36,58985
516,395	5,02881
516,602	23,75655
516,81	-36,58985
517,017	0,86704
517,224	23,75655
517,431	-113,5898
517,638	63,29155
517,845	-42,83283
518,053	88,26009
518,26	63,29155
518,467	-59,48099
518,674	94,50212
518,881	5,02881
519,088	27,91822
519,295	23,75655
519,502	46,64546
519,709	-42,83283
519,916	-9,53749
520,123	-42,83283
520,33	42,48388
520,537	-42,83283
520,744	9,19057
520,95	21,67571
521,157	-7,45657
521,364	42,48388
521,571	71,61448
521,778	-40,75183
521,985	32,07986
522,191	46,64546
522,398	59,13006
522,605	-17,8612
522,812	-82,37275
523,019	25,83739
523,225	-42,83283
523,432	150,67834
523,639	-28,26596
523,845	13,3523
524,052	17,51402
524,259	21,67571
524,465	-65,72414
524,672	-46,99484
524,878	-101,10284
525,085	-32,42789
525,292	-59,48099
525,498	71,61448
525,705	23,75655
525,911	-40,75183
526,118	17,51402
526,324	109,06667
526,531	-1,21386
526,737	67,45302
526,944	-32,42789
527,15	-7,45657
527,356	-3,29476
527,563	42,48388
527,769	-65,72414
527,975	0,86704
528,182	13,3523
528,388	19,59487
528,594	92,42145
528,801	-7,45657
529,007	-78,21057
529,213	52,88778
529,42	-30,34692
529,626	-32,42789
529,832	13,3523
530,038	-5,37566
530,244	-26,18499
530,451	32,07986
530,657	-19,94214
530,863	7,10969
531,069	-67,80519
531,275	17,51402
531,481	117,38916
531,687	-42,83283
531,893	-44,91383
532,099	-107,3463
532,305	-49,07585
532,511	46,64546
532,717	38,32229
532,923	-5,37566
533,129	50,80701
533,335	-3,29476
533,541	7,10969
533,747	-71,96733
533,953	11,27144
534,159	-36,58985
534,365	82,01802
534,571	75,77591
534,777	48,72623
534,982	-38,67084
535,188	-67,80519
535,394	0,86704
535,6	42,48388
535,806	-3,29476
536,011	-9,53749
536,217	59,13006
536,423	-61,56203
536,628	-82,37275
536,834	-67,80519
537,04	-24,10404
537,245	113,22792
537,451	19,59487
537,657	71,61448
537,862	75,77591
538,068	-11,61841
538,273	77,85662
538,479	40,40309
538,685	61,2108
538,89	-111,50863
539,096	36,24148
539,301	27,91822
539,507	21,67571
539,712	23,75655
539,917	32,07986
540,123	177,72487
540,328	-30,34692
540,534	106,98603
540,739	59,13006
540,944	84,09872
541,15	48,72623
541,355	15,43316
541,56	79,93732
541,766	-11,61841
541,971	71,61448
542,176	-19,94214
542,382	88,26009
542,587	-26,18499
542,792	90,34077
542,997	48,72623
543,202	-34,50887
543,408	-17,8612
543,613	-19,94214
543,818	-7,45657
544,023	-32,42789
544,228	-11,61841
544,433	104,90539
544,638	7,10969
544,843	-28,26596
545,049	9,19057
545,254	44,56467
545,459	2,94793
545,664	-49,07585
545,869	-59,48099
546,074	96,58278
546,279	-22,02309
546,483	2,94793
546,688	-49,07585
546,893	17,51402
547,098	52,88778
547,303	-5,37566
547,508	69,53375
547,713	-49,07585
547,918	59,13006
548,122	-13,69933
548,327	-1,21386
548,532	115,30854
548,737	-74,0484
548,942	38,32229
549,146	-9,53749
549,351	50,80701
549,556	54,96854
549,76	-53,23789
549,965	106,98603
550,17	-15,78026
550,374	-11,61841
550,579	48,72623
550,784	27,91822
550,988	-44,91383
551,193	63,29155
551,397	2,94793
551,602	-15,78026
551,806	94,50212
552,011	36,24148
552,215	19,59487
552,42	11,27144
552,624	75,77591
552,829	40,40309
553,033	23,75655
553,238	11,27144
553,442	19,59487
553,646	17,51402
553,851	-49,07585
554,055	-24,10404
554,26	36,24148
554,464	-51,15687
554,668	5,02881
554,872	67,45302
555,077	-40,75183
555,281	2,94793
555,485	-32,42789
555,69	36,24148
555,894	17,51402
556,098	63,29155
556,302	-17,8612
556,506	42,48388
556,71	52,88778
556,915	-24,10404
557,119	69,53375
557,323	5,02881
557,527	-36,58985
557,731	36,24148
557,935	5,02881
558,139	140,2756
558,343	-46,99484
558,547	36,24148
558,751	-22,02309
558,955	-59,48099
559,159	29,99904
559,363	86,17941
559,567	-109,42746
559,771	65,37229
559,975	75,77591
560,179	86,17941
560,382	77,85662
560,586	163,16146
560,79	63,29155
560,994	50,80701
561,198	40,40309
561,402	48,72623
561,605	-46,99484
561,809	-17,8612
562,013	63,29155
562,217	109,06667
562,42	-24,10404
562,624	69,53375
562,828	-49,07585
563,031	15,43316
563,235	13,3523
563,439	21,67571
563,642	48,72623
563,846	-24,10404
564,049	-32,42789
564,253	52,88778
564,456	69,53375
564,66	54,96854
564,863	63,29155
565,067	-28,26596
565,27	-17,8612
565,474	-13,69933
565,677	44,56467
565,881	52,88778
566,084	44,56467
566,288	-24,10404
566,491	36,24148
566,694	2,94793
566,898	73,6952
567,101	165,24196
567,304	9,19057
567,508	23,75655
567,711	131,95333
567,914	-86,53496
568,118	0,86704
568,321	46,64546
568,524	154,8394
568,727	104,90539
568,93	-63,64308
569,134	-44,91383
569,337	32,07986
569,54	148,5978
569,743	-5,37566
569,946	15,43316
570,149	98,66344
570,352	5,02881
570,555	59,13006
570,758	11,27144
570,962	9,19057
571,165	100,7441
571,368	57,0493
571,571	46,64546
571,774	11,27144
571,976	84,09872
572,179	75,77591
572,382	29,99904
572,585	15,43316
572,788	-22,02309
572,991	75,77591
573,194	54,96854
573,397	23,75655
573,6	-57,39995
573,802	136,11447
574,005	163,16146
574,208	-42,83283
574,411	59,13006
574,613	9,19057
574,816	98,66344
575,019	90,34077
575,222	13,3523
575,424	21,67571
575,627	142,35616
575,83	213,09219
576,032	13,3523
576,235	69,53375
576,438	90,34077
576,64	-53,23789
576,843	156,91992
577,045	-1,21386
577,248	77,85662
577,45	38,32229
577,653	27,91822
577,855	-11,61841
578,058	-49,07585
578,26	90,34077
578,463	11,27144
578,665	115,30854
578,868	11,27144
579,07	46,64546
579,272	142,35616
579,475	65,37229
579,677	54,96854
579,879	44,56467
580,082	82,01802
580,284	-7,45657
580,486	0,86704
580,689	-22,02309
580,891	27,91822
581,093	50,80701
581,295	-11,61841
581,498	75,77591
581,7	82,01802
581,902	36,24148
582,104	5,02881
582,306	40,40309
582,508	88,26009
582,71	46,64546
582,913	106,98603
583,115	-101,10284
583,317	63,29155
583,519	15,43316
583,721	-26,18499
583,923	79,93732
584,125	84,09872
584,327	27,91822
584,529	100,7441
584,731	38,32229
584,933	69,53375
585,135	-11,61841
585,336	2,94793
585,538	100,7441
585,74	65,37229
585,942	61,2108
586,144	48,72623
586,346	115,30854
586,547	46,64546
586,749	100,7441
586,951	-9,53749
587,153	34,16067
587,355	0,86704
587,556	136,11447
587,758	75,77591
587,96	84,09872
588,161	100,7441
588,363	142,35616
588,565	23,75655
588,766	104,90539
588,968	88,26009
589,17	196,44892
589,371	75,77591
589,573	96,58278
589,774	90,34077
589,976	-55,31892
590,177	77,85662
590,379	17,51402
590,58	106,98603
590,782	84,09872
590,983	181,88581
591,185	7,10969
591,386	84,09872
591,587	121,55037
591,789	75,77591
591,99	13,3523
592,192	100,7441
592,393	0,86704
592,594	44,56467
592,796	75,77591
592,997	73,6952
593,198	21,67571
593,399	38,32229
593,601	77,85662
593,802	113,22792
594,003	92,42145
594,204	27,91822
594,405	119,46977
594,607	23,75655
594,808	40,40309
595,009	38,32229
595,21	36,24148
595,411	98,66344
595,612	50,80701
595,813	50,80701
596,014	52,88778
596,215	82,01802
596,416	54,96854
596,617	-11,61841
596,818	17,51402
597,019	156,91992
597,22	92,42145
597,421	156,91992
597,622	115,30854
597,823	121,55037
598,024	-3,29476
598,225	59,13006
598,426	-11,61841
598,627	125,71157
598,827	48,72623
599,028	7,10969
599,229	163,16146
599,43	7,10969
599,63	96,58278
599,831	100,7441
600,032	71,61448
600,233	69,53375
600,433	-3,29476
600,634	115,30854
600,835	54,96854
601,035	-9,53749
601,236	-1,21386
601,437	111,1473
601,637	-3,29476
601,838	106,98603
602,038	9,19057
602,239	-28,26596
602,439	77,85662
602,64	-1,21386
602,841	25,83739
603,041	71,61448
603,241	-17,8612
603,442	11,27144
603,642	-44,91383
603,843	42,48388
604,043	27,91822
604,244	-3,29476
604,444	-63,64308
604,644	-1,21386
604,845	-53,23789
605,045	86,17941
605,245	-9,53749
605,446	11,27144
605,646	34,16067
605,846	106,98603
606,046	-5,37566
606,247	67,45302
606,447	44,56467
606,647	17,51402
606,847	38,32229
607,047	32,07986
607,248	71,61448
607,448	40,40309
607,648	42,48388
607,848	94,50212
608,048	-57,39995
608,248	65,37229
608,448	17,51402
608,648	109,06667
608,848	102,82475
609,048	29,99904
609,248	34,16067
609,448	34,16067
609,648	42,48388
609,848	57,0493
610,048	52,88778
610,248	34,16067
610,448	50,80701
610,648	-15,78026
610,847	104,90539
611,047	77,85662
611,247	29,99904
611,447	54,96854
611,647	46,64546
611,846	52,88778
612,046	-26,18499
612,246	7,10969
612,446	82,01802
612,645	-76,12948
612,845	-22,02309
613,045	159,00044
613,244	-69,88626
613,444	154,8394
613,644	84,09872
613,843	119,46977
614,043	-11,61841
614,243	7,10969
614,442	86,17941
614,642	42,48388
614,841	73,6952
615,041	127,79216
615,24	13,3523
615,44	152,75887
615,639	154,8394
615,839	67,45302
616,038	156,91992
616,237	190,20762
616,437	94,50212
616,636	102,82475
616,836	213,09219
617,035	159,00044
617,234	154,8394
617,434	215,17258
617,633	144,43671
617,832	256,77931
618,032	67,45302
618,231	148,5978
618,43	159,00044
618,629	190,20762
618,828	150,67834
619,028	229,73515
619,227	142,35616
619,426	150,67834
619,625	163,16146
619,824	204,77059
620,023	15,43316
620,222	21,67571
620,422	138,19504
620,621	152,75887
620,82	36,24148
621,019	129,87275
621,218	119,46977
621,417	44,56467
621,616	115,30854
621,815	-30,34692
622,014	61,2108
622,213	-22,02309
622,411	23,75655
622,61	113,22792
622,809	73,6952
623,008	32,07986
623,207	181,88581
623,406	121,55037
623,605	-26,18499
623,803	34,16067
624,002	50,80701
624,201	71,61448
624,4	23,75655
624,598	117,38916
624,797	167,32246
624,996	121,55037
625,195	-1,21386
625,393	-40,75183
625,592	-7,45657
625,791	-74,0484
625,989	94,50212
626,188	50,80701
626,386	25,83739
626,585	-3,29476
626,784	29,99904
626,982	-59,48099
627,181	-36,58985
627,379	0,86704
627,578	2,94793
627,776	69,53375
627,975	-15,78026
628,173	98,66344
628,371	13,3523
628,57	86,17941
628,768	40,40309
628,967	-15,78026
629,165	63,29155
629,363	52,88778
629,562	57,0493
629,76	34,16067
629,958	-11,61841
630,157	-1,21386
630,355	52,88778
630,553	59,13006
630,751	-40,75183
630,95	90,34077
631,148	54,96854
631,346	98,66344
631,544	59,13006
631,742	-3,29476
631,94	-53,23789
632,139	7,10969
632,337	9,19057
632,535	-94,85943
632,733	23,75655
632,931	77,85662
633,129	75,77591
633,327	54,96854
633,525	48,72623
633,723	96,58278
633,921	-84,45385
634,119	54,96854
634,317	57,0493
634,515	59,13006
634,713	69,53375
634,91	5,02881
635,108	-34,50887
635,306	46,64546
635,504	13,3523
635,702	131,95333
635,9	-26,18499
636,097	100,7441
636,295	36,24148
636,493	57,0493
636,691	54,96854
636,888	34,16067
637,086	0,86704
637,284	52,88778
637,482	5,02881
637,679	86,17941
637,877	-44,91383
638,075	63,29155
638,272	-38,67084
638,47	-5,37566
638,667	-80,29166
638,865	15,43316
639,062	106,98603
639,26	69,53375
639,457	40,40309
639,655	-1,21386
639,852	67,45302
640,05	67,45302
640,247	36,24148
640,445	113,22792
640,642	-3,29476
640,84	59,13006
641,037	29,99904
641,234	27,91822
641,432	32,07986
641,629	-26,18499
641,826	21,67571
642,024	-5,37566
642,221	65,37229
642,418	67,45302
642,615	42,48388
642,813	73,6952
643,01	7,10969
643,207	104,90539
643,404	-44,91383
643,602	25,83739
643,799	-99,0217
643,996	42,48388
644,193	19,59487
644,39	-1,21386
644,587	54,96854
644,784	96,58278
644,981	-78,21057
645,178	2,94793
645,375	17,51402
645,572	57,0493
645,769	-34,50887
645,966	52,88778
646,163	115,30854
646,36	79,93732
646,557	-65,72414
646,754	88,26009
646,951	69,53375
647,148	-7,45657
647,345	57,0493
647,542	79,93732
647,738	-5,37566
647,935	65,37229
648,132	96,58278
648,329	46,64546
648,526	2,94793
648,722	65,37229
648,919	13,3523
649,116	57,0493
649,312	27,91822
649,509	82,01802
649,706	-11,61841
649,902	11,27144
650,099	63,29155
650,296	-38,67084
650,492	34,16067
650,689	-5,37566
650,885	61,2108
651,082	77,85662
651,278	65,37229
651,475	92,42145
651,671	61,2108
651,868	-26,18499
652,064	61,2108
652,261	-24,10404
652,457	-7,45657
652,654	23,75655
652,85	-11,61841
653,047	-80,29166
653,243	-15,78026
653,439	71,61448
653,636	-28,26596
653,832	77,85662
654,028	86,17941
654,224	-7,45657
654,421	44,56467
654,617	-26,18499
654,813	-13,69933
655,009	40,40309
655,206	-99,0217
655,402	-55,31892
655,598	46,64546
655,794	102,82475
655,99	59,13006
656,186	-74,0484
656,383	52,88778
656,579	11,27144
656,775	7,10969
656,971	-11,61841
657,167	5,02881
657,363	86,17941
657,559	15,43316
657,755	-32,42789
657,951	15,43316
658,147	2,94793
658,343	-26,18499
658,539	-11,61841
658,735	-7,45657
658,93	5,02881
659,126	-38,67084
659,322	-69,88626
659,518	-17,8612
659,714	-32,42789
659,91	19,59487
660,105	19,59487
660,301	-71,96733
660,497	5,02881
660,693	75,77591
660,888	-13,69933
661,084	57,0493
661,28	7,10969
661,476	57,0493
661,671	21,67571
661,867	27,91822
662,062	13,3523
662,258	71,61448
662,454	29,99904
662,649	98,66344
662,845	36,24148
663,04	-22,02309
663,236	19,59487
663,431	65,37229
663,627	-69,88626
663,822	44,56467
664,018	-22,02309
664,213	73,6952
664,409	-36,58985
664,604	61,2108
664,799	15,43316
664,995	-5,37566
665,19	50,80701
665,386	36,24148
665,581	-92,7783
665,776	29,99904
665,972	27,91822
666,167	-61,56203
666,362	-5,37566
666,557	-15,78026
666,753	-59,48099
666,948	27,91822
667,143	57,0493
667,338	156,91992
667,533	38,32229
667,728	13,3523
667,924	7,10969
668,119	42,48388
668,314	71,61448
668,509	-5,37566
668,704	40,40309
668,899	-7,45657
669,094	59,13006
669,289	15,43316
669,484	-38,67084
669,679	-3,29476
669,874	29,99904
670,069	-44,91383
670,264	17,51402
670,459	144,43671
670,654	48,72623
670,849	94,50212
671,043	11,27144
671,238	34,16067
671,433	-76,12948
671,628	34,16067
671,823	57,0493
672,018	-71,96733
672,212	-15,78026
672,407	5,02881
672,602	9,19057
672,797	-53,23789
672,991	32,07986
673,186	-94,85943
673,381	52,88778
673,575	34,16067
673,77	27,91822
673,965	13,3523
674,159	77,85662
674,354	57,0493
674,548	38,32229
674,743	32,07986
674,937	44,56467
675,132	-13,69933
675,326	-15,78026
675,521	-42,83283
675,715	63,29155
675,91	-22,02309
676,104	32,07986
676,299	96,58278
676,493	50,80701
676,687	-38,67084
676,882	102,82475
677,076	-11,61841
677,271	36,24148
677,465	-19,94214
677,659	-1,21386
677,853	7,10969
678,048	-67,80519
678,242	-84,45385
678,436	61,2108
678,63	63,29155
678,825	-32,42789
679,019	71,61448
679,213	-3,29476
679,407	40,40309
679,601	98,66344
679,795	63,29155
679,99	57,0493
680,184	11,27144
680,378	25,83739
680,572	25,83739
680,766	94,50212
680,96	38,32229
681,154	65,37229
681,348	113,22792
681,542	-49,07585
681,736	-59,48099
681,93	94,50212
682,124	-53,23789
682,317	36,24148
682,511	59,13006
682,705	-61,56203
682,899	11,27144
683,093	48,72623
683,287	-9,53749
683,481	9,19057
683,674	23,75655
683,868	-5,37566
684,062	34,16067
684,256	17,51402
684,449	46,64546
684,643	79,93732
684,837	57,0493
685,03	25,83739
685,224	-69,88626
685,418	73,6952
685,611	7,10969
685,805	71,61448
685,999	34,16067
686,192	-42,83283
686,386	-36,58985
686,579	-28,26596
686,773	36,24148
686,966	25,83739
687,16	75,77591
687,353	32,07986
687,547	61,2108
687,74	-13,69933
687,934	-15,78026
688,127	-3,29476
688,32	50,80701
688,514	15,43316
688,707	15,43316
688,9	96,58278
689,094	48,72623
689,287	-69,88626
689,48	34,16067
689,674	25,83739
689,867	-51,15687
690,06	9,19057
690,253	7,10969
690,447	25,83739
690,64	-82,37275
690,833	-3,29476
691,026	104,90539
691,219	46,64546
691,412	71,61448
691,605	104,90539
691,799	-5,37566
691,992	61,2108
692,185	32,07986
692,378	40,40309
692,571	19,59487
692,764	148,5978
692,957	-38,67084
693,15	5,02881
693,343	-57,39995
693,536	144,43671
693,729	-3,29476
693,921	15,43316
694,114	77,85662
694,307	-15,78026
694,5	-1,21386
694,693	-51,15687
694,886	0,86704
695,079	-55,31892
695,271	46,64546
695,464	-53,23789
695,657	-7,45657
695,85	-32,42789
696,042	-92,7783
696,235	15,43316
696,428	36,24148
696,62	-36,58985
696,813	34,16067
697,006	-32,42789
697,198	63,29155
697,391	15,43316
697,584	-9,53749
697,776	34,16067
697,969	42,48388
698,161	-26,18499
698,354	75,77591
698,546	21,67571
698,739	0,86704
698,931	154,8394
699,124	-49,07585
699,316	5,02881
699,509	-46,99484
699,701	21,67571
699,893	52,88778
700,086	5,02881
700,278	44,56467
700,47	98,66344
700,663	94,50212
700,855	-30,34692
701,047	-17,8612
701,24	-46,99484
701,432	-57,39995
701,624	23,75655
701,816	23,75655
702,008	104,90539
702,201	-42,83283
702,393	9,19057
702,585	-49,07585
702,777	63,29155
702,969	-17,8612
703,161	71,61448
703,353	-28,26596
703,546	-53,23789
703,738	40,40309
703,93	79,93732
704,122	48,72623
704,314	-67,80519
704,506	32,07986
704,698	-3,29476
704,89	7,10969
705,082	-57,39995
705,273	-74,0484
705,465	-49,07585
705,657	2,94793
705,849	-49,07585
706,041	-3,29476
706,233	-36,58985
706,425	-24,10404
706,616	-34,50887
706,808	104,90539
707	-46,99484
707,192	48,72623
707,383	-78,21057
707,575	100,7441
707,767	27,91822
707,959	177,72487
708,15	-15,78026
708,342	36,24148
708,534	100,7441
708,725	-38,67084
708,917	61,2108
709,108	125,71157
709,3	-42,83283
709,491	-61,56203
709,683	-26,18499
709,875	-63,64308
710,066	117,38916
710,258	21,67571
710,449	-51,15687
710,64	-57,39995
710,832	111,1473
711,023	-49,07585
711,215	94,50212
711,406	42,48388
711,597	50,80701
711,789	-5,37566
711,98	79,93732
712,171	40,40309
712,363	-32,42789
712,554	-15,78026
712,745	44,56467
712,937	11,27144
713,128	84,09872
713,319	117,38916
713,51	-111,50863
713,701	-51,15687
713,893	40,40309
714,084	-53,23789
714,275	-19,94214
714,466	111,1473
714,657	-44,91383
714,848	-32,42789
715,039	48,72623
715,23	-42,83283
715,421	52,88778
715,612	27,91822
715,803	134,0339
715,994	0,86704
716,185	154,8394
716,376	-17,8612
716,567	11,27144
716,758	104,90539
716,949	-28,26596
717,14	111,1473
717,331	-15,78026
717,522	36,24148
717,712	-26,18499
717,903	-1,21386
718,094	131,95333
718,285	-7,45657
718,476	36,24148
718,666	29,99904
718,857	17,51402
719,048	-69,88626
719,238	38,32229
719,429	86,17941
719,62	27,91822
719,81	71,61448
720,001	-1,21386
720,192	61,2108
720,382	7,10969
720,573	7,10969
720,763	-55,31892
720,954	17,51402
721,144	44,56467
721,335	25,83739
721,525	-94,85943
721,716	23,75655
721,906	54,96854
722,097	57,0493
722,287	21,67571
722,478	-1,21386
722,668	21,67571
722,858	-22,02309
723,049	75,77591
723,239	-34,50887
723,429	25,83739
723,62	-5,37566
723,81	-17,8612
724	34,16067
724,191	29,99904
724,381	42,48388
724,571	-5,37566
724,761	-49,07585
724,951	-32,42789
725,142	57,0493
725,332	-103,18399
725,522	52,88778
725,712	38,32229
725,902	13,3523
726,092	-78,21057
726,282	86,17941
726,472	-5,37566
726,662	-30,34692
726,852	-30,34692
727,042	73,6952
727,232	15,43316
727,422	-38,67084
727,612	169,40295
727,802	69,53375
727,992	67,45302
728,182	-24,10404
728,372	73,6952
728,562	-67,80519
728,752	11,27144
728,942	-44,91383
729,131	-57,39995
729,321	-11,61841
729,511	71,61448
729,701	52,88778
729,89	-38,67084
730,08	-32,42789
730,27	15,43316
730,46	-17,8612
730,649	32,07986
730,839	57,0493
731,029	-40,75183
731,218	-61,56203
731,408	29,99904
731,597	0,86704
731,787	-3,29476
731,977	63,29155
732,166	19,59487
732,356	27,91822
732,545	-44,91383
732,735	23,75655
732,924	-13,69933
733,114	-55,31892
733,303	-1,21386
733,492	7,10969
733,682	-40,75183
733,871	-38,67084
734,061	-42,83283
734,25	71,61448
734,439	-36,58985
734,629	-19,94214
734,818	-34,50887
735,007	34,16067
735,197	-17,8612
735,386	-22,02309
735,575	36,24148
735,764	9,19057
735,954	34,16067
736,143	-15,78026
736,332	52,88778
736,521	140,2756
736,71	84,09872
736,899	-3,29476
737,088	92,42145
737,278	7,10969
737,467	-57,39995
737,656	21,67571
737,845	61,2108
738,034	-19,94214
738,223	-40,75183
738,412	146,51726
738,601	-17,8612
738,79	-30,34692
738,979	-88,61607
739,168	-186,43416
739,356	27,91822
739,545	21,67571
739,734	-22,02309
739,923	-1,21386
740,112	111,1473
740,301	-13,69933
740,489	36,24148
740,678	32,07986
740,867	100,7441
741,056	15,43316
741,245	57,0493
741,433	106,98603
741,622	-19,94214
741,811	-69,88626
741,999	96,58278
742,188	-103,18399
742,377	63,29155
742,565	23,75655
742,754	127,79216
742,942	-30,34692
743,131	-9,53749
743,319	44,56467
743,508	17,51402
743,697	57,0493
743,885	-26,18499
744,073	21,67571
744,262	-34,50887
744,45	9,19057
744,639	13,3523
744,827	-61,56203
745,016	19,59487
745,204	38,32229
745,392	50,80701
745,581	48,72623
745,769	-13,69933
745,957	-80,29166
746,146	69,53375
746,334	-24,10404
746,522	-7,45657
746,71	-22,02309
746,899	-34,50887
747,087	-84,45385
747,275	-15,78026
747,463	-82,37275
747,651	2,94793
747,84	-82,37275
748,028	21,67571
748,216	-11,61841
748,404	42,48388
748,592	131,95333
748,78	-15,78026
748,968	2,94793
749,156	36,24148
749,344	-49,07585
749,532	-11,61841
749,72	138,19504
749,908	-51,15687
750,096	-80,29166
750,284	129,87275
750,472	44,56467
750,66	36,24148
750,847	-7,45657
751,035	32,07986
751,223	-26,18499
751,411	69,53375
751,599	-9,53749
751,787	-44,91383
751,974	67,45302
752,162	96,58278
752,35	-17,8612
752,537	-15,78026
752,725	-113,5898
752,913	46,64546
753,101	-22,02309
753,288	21,67571
753,476	67,45302
753,663	-17,8612
753,851	-26,18499
754,039	-51,15687
754,226	-1,21386
754,414	-82,37275
754,601	79,93732
754,789	-24,10404
754,976	-28,26596
755,164	29,99904
755,351	-61,56203
755,539	44,56467
755,726	-7,45657
755,913	-22,02309
756,101	-38,67084
756,288	-30,34692
756,476	-38,67084
756,663	25,83739
756,85	32,07986
757,037	52,88778
757,225	-113,5898
757,412	-1,21386
757,599	38,32229
757,787	263,02015
757,974	-80,29166
758,161	65,37229
758,348	25,83739
758,535	65,37229
758,722	11,27144
758,91	-126,07695
759,097	-19,94214
759,284	-74,0484
759,471	-11,61841
759,658	-9,53749
759,845	29,99904
760,032	40,40309
760,219	-90,69718
760,406	-30,34692
760,593	42,48388
760,78	94,50212
760,967	5,02881
761,154	50,80701
761,341	-55,31892
761,528	-7,45657
761,715	7,10969
761,901	-126,07695
762,088	-44,91383
762,275	-113,5898
762,462	46,64546
762,649	71,61448
762,835	-19,94214
763,022	57,0493
763,209	-80,29166
763,396	11,27144
763,582	77,85662
763,769	-5,37566
763,956	5,02881
764,142	36,24148
764,329	40,40309
764,516	23,75655
764,702	32,07986
764,889	-38,67084
765,075	-17,8612
765,262	-32,42789
765,448	67,45302
765,635	5,02881
765,821	-17,8612
766,008	-36,58985
766,194	96,58278
766,381	29,99904
766,567	-13,69933
766,754	117,38916
766,94	-34,50887
767,127	27,91822
767,313	57,0493
767,499	-34,50887
767,686	-19,94214
767,872	159,00044
768,058	32,07986
768,244	75,77591
768,431	79,93732
768,617	-71,96733
768,803	-11,61841
768,989	-36,58985
769,176	-24,10404
769,362	82,01802
769,548	2,94793
769,734	-63,64308
769,92	23,75655
770,106	38,32229
770,292	-7,45657
770,478	52,88778
770,664	40,40309
770,851	46,64546
771,037	-46,99484
771,223	-99,0217
771,409	7,10969
771,594	75,77591
771,78	-9,53749
771,966	57,0493
772,152	-32,42789
772,338	5,02881
772,524	38,32229
772,71	-44,91383
772,896	54,96854
773,082	75,77591
773,267	19,59487
773,453	52,88778
773,639	15,43316
773,825	-71,96733
774,011	17,51402
774,196	23,75655
774,382	2,94793
774,568	-3,29476
774,753	2,94793
774,939	79,93732
775,125	17,51402
775,31	82,01802
775,496	-130,23937
775,681	2,94793
775,867	73,6952
776,053	50,80701
776,238	9,19057
776,424	11,27144
776,609	-13,69933
776,795	-86,53496
776,98	84,09872
777,166	-19,94214
777,351	-9,53749
777,536	23,75655
777,722	23,75655
777,907	34,16067
778,093	36,24148
778,278	-40,75183
778,463	100,7441
778,649	-61,56203
778,834	-3,29476
779,019	-26,18499
779,204	-61,56203
779,39	54,96854
779,575	23,75655
779,76	-13,69933
779,945	84,09872
780,13	2,94793
780,316	19,59487
780,501	-94,85943
780,686	-46,99484
780,871	54,96854
781,056	2,94793
781,241	40,40309
781,426	44,56467
781,611	-142,72677
781,796	-113,5898
781,981	23,75655
782,166	29,99904
782,351	7,10969
782,536	84,09872
782,721	7,10969
782,906	-61,56203
783,091	-59,48099
783,276	-7,45657
783,461	59,13006
783,646	50,80701
783,83	65,37229
784,015	-44,91383
784,2	-11,61841
784,385	34,16067
784,57	13,3523
784,754	42,48388
784,939	-117,75216
785,124	-117,75216
785,308	5,02881
785,493	-84,45385
785,678	104,90539
785,862	79,93732
786,047	63,29155
786,232	36,24148
786,416	-11,61841
786,601	-76,12948
786,785	-22,02309
786,97	11,27144
787,154	48,72623
787,339	-1,21386
787,523	46,64546
787,708	48,72623
787,892	-17,8612
788,077	46,64546
788,261	-36,58985
788,446	57,0493
788,63	-65,72414
788,814	-3,29476
788,999	90,34077
789,183	2,94793
789,367	-86,53496
789,552	17,51402
789,736	27,91822
789,92	59,13006
790,104	77,85662
790,289	73,6952
790,473	-32,42789
790,657	27,91822
790,841	84,09872
791,025	73,6952
791,21	9,19057
791,394	-11,61841
791,578	48,72623
791,762	100,7441
791,946	0,86704
792,13	-49,07585
792,314	36,24148
792,498	-15,78026
792,682	54,96854
792,866	25,83739
793,05	42,48388
793,234	-13,69933
793,418	84,09872
793,602	131,95333
793,786	-7,45657
793,97	46,64546
794,153	94,50212
794,337	-53,23789
794,521	25,83739
794,705	-40,75183
794,889	-34,50887
795,073	82,01802
795,256	19,59487
795,44	104,90539
795,624	-74,0484
795,807	0,86704
795,991	-53,23789
796,175	-1,21386
796,358	-55,31892
796,542	34,16067
796,726	29,99904
796,909	27,91822
797,093	-7,45657
797,277	23,75655
797,46	-32,42789
797,644	-1,21386
797,827	27,91822
798,011	-53,23789
798,194	-19,94214
798,378	-11,61841
798,561	-36,58985
798,744	11,27144
798,928	19,59487
799,111	-34,50887
799,295	19,59487
799,478	11,27144
799,661	32,07986
799,845	-46,99484
800,028	50,80701
800,211	90,34077
800,395	19,59487
800,578	29,99904
800,761	-46,99484
800,944	0,86704
801,127	-65,72414
801,311	-13,69933
801,494	-38,67084
801,677	-26,18499
801,86	-44,91383
802,043	-28,26596
802,226	111,1473
802,409	106,98603
802,593	-15,78026
802,776	-9,53749
802,959	7,10969
803,142	-30,34692
803,325	-82,37275
803,508	-7,45657
803,691	125,71157
803,874	-40,75183
804,056	-30,34692
804,239	-32,42789
804,422	0,86704
804,605	-61,56203
804,788	96,58278
804,971	69,53375
805,154	-3,29476
805,336	-32,42789
805,519	-22,02309
805,702	-9,53749
805,885	7,10969
806,068	-1,21386
806,25	71,61448
806,433	-71,96733
806,616	-3,29476
806,798	-3,29476
806,981	42,48388
807,164	19,59487
807,346	90,34077
807,529	-84,45385
807,711	-63,64308
807,894	-24,10404
808,076	-22,02309
808,259	-15,78026
808,442	-40,75183
808,624	57,0493
808,806	5,02881
808,989	27,91822
809,171	-24,10404
809,354	-3,29476
809,536	67,45302
809,719	11,27144
809,901	-92,7783
810,083	21,67571
810,266	-30,34692
810,448	21,67571
810,63	52,88778
810,813	59,13006
810,995	-46,99484
811,177	23,75655
811,359	36,24148
811,542	140,2756
811,724	-74,0484
811,906	-84,45385
812,088	-119,83335
812,27	69,53375
812,452	-7,45657
812,634	54,96854
812,817	-78,21057
812,999	102,82475
813,181	23,75655
813,363	117,38916
813,545	-38,67084
813,727	27,91822
813,909	11,27144
814,091	-36,58985
814,273	67,45302
814,455	36,24148
814,637	-26,18499
814,818	36,24148
815	-42,83283
815,182	46,64546
815,364	-71,96733
815,546	29,99904
815,728	90,34077
815,909	-119,83335
816,091	36,24148
816,273	-22,02309
816,455	40,40309
816,636	17,51402
816,818	-34,50887
817	52,88778
817,182	-30,34692
817,363	29,99904
817,545	25,83739
817,726	88,26009
817,908	11,27144
818,09	-34,50887
818,271	152,75887
818,453	0,86704
818,634	44,56467
818,816	44,56467
818,997	-11,61841
819,179	-22,02309
819,36	67,45302
819,542	-30,34692
819,723	-30,34692
819,905	40,40309
820,086	-9,53749
820,267	138,19504
820,449	19,59487
820,63	27,91822
820,811	13,3523
820,993	79,93732
821,174	177,72487
821,355	11,27144
821,536	94,50212
821,718	23,75655
821,899	-92,7783
822,08	-9,53749
822,261	7,10969
822,442	-38,67084
822,624	38,32229
822,805	9,19057
822,986	-19,94214
823,167	-49,07585
823,348	61,2108
823,529	-1,21386
823,71	-15,78026
823,891	82,01802
824,072	5,02881
824,253	23,75655
824,434	71,61448
824,615	71,61448
824,796	17,51402
824,977	65,37229
825,158	50,80701
825,339	-9,53749
825,52	23,75655
825,7	-11,61841
825,881	38,32229
826,062	-19,94214
826,243	50,80701
826,424	38,32229
826,604	-30,34692
826,785	-84,45385
826,966	-9,53749
827,147	-36,58985
827,327	119,46977
827,508	-38,67084
827,689	-32,42789
827,869	-94,85943
828,05	44,56467
828,231	-1,21386
828,411	27,91822
828,592	-32,42789
828,772	-34,50887
828,953	-13,69933
829,133	-86,53496
829,314	65,37229
829,494	-49,07585
829,675	63,29155
829,855	-71,96733
830,036	-38,67084
830,216	-28,26596
830,396	-32,42789
830,577	-1,21386
830,757	32,07986
830,938	-30,34692
831,118	32,07986
831,298	-3,29476
831,479	5,02881
831,659	54,96854
831,839	7,10969
832,019	25,83739
832,199	48,72623
832,38	106,98603
832,56	27,91822
832,74	-24,10404
832,92	9,19057
833,1	13,3523
833,28	17,51402
833,461	94,50212
833,641	25,83739
833,821	63,29155
834,001	-55,31892
834,181	150,67834
834,361	36,24148
834,541	-103,18399
834,721	2,94793
834,901	-5,37566
835,081	-32,42789
835,261	-13,69933
835,44	-1,21386
835,62	-5,37566
835,8	19,59487
835,98	-11,61841
836,16	2,94793
836,34	100,7441
836,52	19,59487
836,699	15,43316
836,879	40,40309
837,059	48,72623
837,239	0,86704
837,418	-5,37566
837,598	-3,29476
837,778	-36,58985
837,957	-24,10404
838,137	9,19057
838,317	40,40309
838,496	-101,10284
838,676	-80,29166
838,855	42,48388
839,035	29,99904
839,214	-32,42789
839,394	88,26009
839,573	44,56467
839,753	50,80701
839,932	77,85662
840,112	-49,07585
840,291	77,85662
840,471	32,07986
840,65	-44,91383
840,829	90,34077
841,009	79,93732
841,188	-1,21386
841,367	-3,29476
841,547	-88,61607
841,726	5,02881
841,905	-22,02309
842,085	-19,94214
842,264	27,91822
842,443	-59,48099
842,622	111,1473
842,801	-1,21386
842,981	-55,31892
843,16	2,94793
843,339	-19,94214
843,518	32,07986
843,697	25,83739
843,876	-67,80519
844,055	2,94793
844,234	44,56467
844,413	29,99904
844,592	5,02881
844,771	-69,88626
844,95	-13,69933
845,129	-46,99484
845,308	11,27144
845,487	-42,83283
845,666	2,94793
845,845	-26,18499
846,024	-34,50887
846,202	-1,21386
846,381	-28,26596
846,56	-59,48099
846,739	54,96854
846,918	-28,26596
847,096	34,16067
847,275	44,56467
847,454	13,3523
847,633	119,46977
847,811	-22,02309
847,99	46,64546
848,169	-55,31892
848,347	102,82475
848,526	-26,18499
848,704	98,66344
848,883	48,72623
849,062	-26,18499
849,24	32,07986
849,419	71,61448
849,597	-15,78026
849,776	46,64546
849,954	84,09872
850,133	-3,29476
850,311	-46,99484
850,49	25,83739
850,668	-63,64308
850,846	84,09872
851,025	-67,80519
851,203	-26,18499
851,381	59,13006
851,56	-22,02309
851,738	25,83739
851,916	34,16067
852,095	-32,42789
852,273	75,77591
852,451	61,2108
852,629	-111,50863
852,807	63,29155
852,986	34,16067
853,164	9,19057
853,342	-71,96733
853,52	57,0493
853,698	-30,34692
853,876	5,02881
854,054	79,93732
854,232	73,6952
854,41	134,0339
854,588	65,37229
854,766	-80,29166
854,944	-9,53749
855,122	-44,91383
855,3	84,09872
855,478	-11,61841
855,656	32,07986
855,834	-7,45657
856,012	-5,37566
856,19	-74,0484
856,368	69,53375
856,545	-28,26596
856,723	21,67571
856,901	102,82475
857,079	96,58278
857,256	-9,53749
857,434	32,07986
857,612	-22,02309
857,79	-76,12948
857,967	-38,67084
858,145	21,67571
858,323	5,02881
858,5	77,85662
858,678	71,61448
858,855	-26,18499
859,033	36,24148
859,211	-55,31892
859,388	11,27144
859,566	-22,02309
859,743	-7,45657
859,921	-1,21386
860,098	-17,8612
860,276	-46,99484
860,453	-67,80519
860,63	-94,85943
860,808	-15,78026
860,985	-7,45657
861,162	-55,31892
861,34	-11,61841
861,517	-17,8612
861,694	-132,32059
861,872	21,67571
862,049	40,40309
862,226	77,85662
862,403	-32,42789
862,581	-15,78026
862,758	44,56467
862,935	0,86704
863,112	-17,8612
863,289	-28,26596
863,467	34,16067
863,644	-46,99484
863,821	21,67571
863,998	71,61448
864,175	-22,02309
864,352	-15,78026
864,529	52,88778
864,706	69,53375
864,883	-26,18499
865,06	-26,18499
865,237	5,02881
865,414	23,75655
865,591	-22,02309
865,768	84,09872
865,944	92,42145
866,121	52,88778
866,298	113,22792
866,475	-9,53749
866,652	34,16067
866,829	17,51402
867,005	-34,50887
867,182	-51,15687
867,359	67,45302
867,536	-86,53496
867,712	9,19057
867,889	5,02881
868,066	0,86704
868,242	21,67571
868,419	-9,53749
868,596	-24,10404
868,772	57,0493
868,949	46,64546
869,125	-17,8612
869,302	42,48388
869,478	-19,94214
869,655	46,64546
869,831	-34,50887
870,008	100,7441
870,184	104,90539
870,361	15,43316
870,537	61,2108
870,714	-19,94214
870,89	-40,75183
871,066	-42,83283
871,243	59,13006
871,419	-5,37566
871,595	82,01802
871,772	38,32229
871,948	-36,58985
872,124	-11,61841
872,3	-5,37566
872,477	84,09872
872,653	61,2108
872,829	94,50212
873,005	-51,15687
873,181	-1,21386
873,357	17,51402
873,533	-13,69933
873,71	7,10969
873,886	71,61448
874,062	-7,45657
874,238	-32,42789
874,414	-5,37566
874,59	-15,78026
874,766	73,6952
874,942	154,8394
875,118	-28,26596
875,294	-46,99484
875,47	-40,75183
875,645	71,61448
875,821	-59,48099
875,997	-63,64308
876,173	-34,50887
876,349	21,67571
876,525	-34,50887
876,7	-49,07585
876,876	-59,48099
877,052	13,3523
877,228	61,2108
877,403	-44,91383
877,579	-49,07585
877,755	-36,58985
877,931	2,94793
878,106	23,75655
878,282	-42,83283
878,457	-49,07585
878,633	-51,15687
878,809	32,07986
878,984	21,67571
879,16	-28,26596
879,335	38,32229
879,511	-7,45657
879,686	-86,53496
879,862	11,27144
880,037	-46,99484
880,213	-113,5898
880,388	-44,91383
880,563	-26,18499
880,739	-22,02309
880,914	-55,31892
881,089	27,91822
881,265	-5,37566
881,44	-28,26596
881,615	40,40309
881,791	-42,83283
881,966	-34,50887
882,141	-13,69933
882,316	27,91822
882,492	-7,45657
882,667	67,45302
882,842	-36,58985
883,017	27,91822
883,192	-46,99484
883,367	29,99904
883,542	-40,75183
883,718	-42,83283
883,893	-22,02309
884,068	-101,10284
884,243	23,75655
884,418	5,02881
884,593	-74,0484
884,768	23,75655
884,943	-3,29476
885,117	-32,42789
885,292	40,40309
885,467	54,96854
885,642	46,64546
885,817	36,24148
885,992	38,32229
886,167	71,61448
886,342	65,37229
886,516	-13,69933
886,691	98,66344
886,866	27,91822
887,041	136,11447
887,215	50,80701
887,39	19,59487
887,565	-44,91383
887,739	23,75655
887,914	23,75655
888,089	-115,67098
888,263	-26,18499
888,438	48,72623
888,612	50,80701
888,787	75,77591
888,962	0,86704
889,136	17,51402
889,311	-7,45657
889,485	-36,58985
889,659	-69,88626
889,834	75,77591
890,008	-65,72414
890,183	-36,58985
890,357	-26,18499
890,532	2,94793
890,706	71,61448
890,88	-107,3463
891,055	-17,8612
891,229	25,83739
891,403	-17,8612
891,577	-17,8612
891,752	-44,91383
891,926	13,3523
892,1	67,45302
892,274	84,09872
892,449	-40,75183
892,623	-17,8612
892,797	15,43316
892,971	17,51402
893,145	142,35616
893,319	5,02881
893,493	-44,91383
893,667	9,19057
893,841	38,32229
894,015	-15,78026
894,189	-17,8612
894,363	44,56467
894,537	-74,0484
894,711	-76,12948
894,885	-11,61841
895,059	-94,85943
895,233	7,10969
895,407	17,51402
895,581	-3,29476
895,755	-63,64308
895,928	-1,21386
896,102	-128,15816
896,276	104,90539
896,45	48,72623
896,623	-1,21386
896,797	-15,78026
896,971	-26,18499
897,145	36,24148
897,318	38,32229
897,492	42,48388
897,666	-40,75183
897,839	71,61448
898,013	-9,53749
898,186	-92,7783
898,36	-82,37275
898,534	100,7441
898,707	-59,48099
898,881	-19,94214
899,054	50,80701
899,228	-53,23789
899,401	17,51402
899,574	-11,61841
899,748	-126,07695
899,921	17,51402
900,095	-34,50887
900,268	34,16067
900,441	69,53375
900,615	-3,29476
900,788	-24,10404
900,961	-19,94214
901,135	13,3523
901,308	82,01802
901,481	61,2108
901,654	-15,78026
901,828	-34,50887
902,001	7,10969
902,174	-86,53496
902,347	-51,15687
902,52	92,42145
902,693	5,02881
902,866	34,16067
903,04	36,24148
903,213	21,67571
903,386	-61,56203
903,559	36,24148
903,732	-107,3463
903,905	-71,96733
904,078	-9,53749
904,251	-38,67084
904,424	-71,96733
904,596	-123,99574
904,769	7,10969
904,942	-74,0484
905,115	57,0493
905,288	32,07986
905,461	-94,85943
905,634	17,51402
905,806	-78,21057
905,979	-28,26596
906,152	34,16067
906,325	40,40309
906,497	25,83739
906,67	-26,18499
906,843	61,2108
907,015	-57,39995
907,188	-19,94214
907,361	-7,45657
907,533	13,3523
907,706	-101,10284
907,878	-19,94214
908,051	-63,64308
908,224	59,13006
908,396	82,01802
908,569	-11,61841
908,741	-30,34692
908,914	15,43316
909,086	109,06667
909,258	-11,61841
909,431	7,10969
909,603	-22,02309
909,776	92,42145
909,948	-32,42789
910,12	2,94793
910,293	-19,94214
910,465	7,10969
910,637	63,29155
910,81	-24,10404
910,982	19,59487
911,154	11,27144
911,326	-94,85943
911,498	36,24148
911,671	13,3523
911,843	-17,8612
912,015	-17,8612
912,187	-13,69933
912,359	-34,50887
912,531	27,91822
912,703	-49,07585
912,875	-144,80802
913,047	48,72623
913,219	67,45302
913,391	-46,99484
913,563	-3,29476
913,735	7,10969
913,907	75,77591
914,079	88,26009
914,251	-9,53749
914,423	-17,8612
914,595	-44,91383
914,767	-53,23789
914,939	15,43316
915,11	21,67571
915,282	-99,0217
915,454	-1,21386
915,626	69,53375
915,797	-61,56203
915,969	98,66344
916,141	-15,78026
916,313	5,02881
916,484	61,2108
916,656	-5,37566
916,828	-53,23789
916,999	109,06667
917,171	-42,83283
917,342	61,2108
917,514	73,6952
917,685	27,91822
917,857	-57,39995
918,028	67,45302
918,2	23,75655
918,371	-15,78026
918,543	27,91822
918,714	-74,0484
918,886	67,45302
919,057	-44,91383
919,229	-15,78026
919,4	-9,53749
919,571	-19,94214
919,743	9,19057
919,914	2,94793
920,085	-24,10404
920,256	-61,56203
920,428	-38,67084
920,599	-40,75183
920,77	52,88778
920,941	-28,26596
921,113	115,30854
921,284	-67,80519
921,455	46,64546
921,626	-5,37566
921,797	-126,07695
921,968	138,19504
922,139	92,42145
922,31	-5,37566
922,481	32,07986
922,652	25,83739
922,823	40,40309
922,994	-49,07585
923,165	23,75655
923,336	-15,78026
923,507	0,86704
923,678	96,58278
923,849	-44,91383
924,02	46,64546
924,191	0,86704
924,362	-24,10404
924,532	-34,50887
924,703	40,40309
924,874	-151,05181
925,045	63,29155
925,215	-99,0217
925,386	-19,94214
925,557	67,45302
925,728	-57,39995
925,898	44,56467
926,069	-11,61841
926,24	2,94793
926,41	-49,07585
926,581	88,26009
926,751	15,43316
926,922	-1,21386
927,092	-34,50887
927,263	-7,45657
927,433	36,24148
927,604	-78,21057
927,774	-61,56203
927,945	21,67571
928,115	38,32229
928,286	-38,67084
928,456	123,63097
928,627	-9,53749
928,797	19,59487
928,967	32,07986
929,138	-38,67084
929,308	63,29155
929,478	-32,42789
929,648	-59,48099
929,819	104,90539
929,989	-13,69933
930,159	36,24148
930,329	0,86704
930,5	-111,50863
930,67	-17,8612
930,84	-38,67084
931,01	15,43316
931,18	-11,61841
931,35	-71,96733
931,52	-36,58985
931,69	48,72623
931,86	34,16067
932,03	-34,50887
932,2	2,94793
932,37	-46,99484
932,54	-15,78026
932,71	-7,45657
932,88	-11,61841
933,05	-9,53749
933,22	-67,80519
933,39	5,02881
933,56	34,16067
933,73	2,94793
933,899	-36,58985
934,069	-53,23789
934,239	-34,50887
934,409	-53,23789
934,578	-96,94056
934,748	27,91822
934,918	-13,69933
935,088	59,13006
935,257	-30,34692
935,427	2,94793
935,596	-38,67084
935,766	2,94793
935,936	63,29155
936,105	-55,31892
936,275	57,0493
936,444	-121,91454
936,614	57,0493
936,783	40,40309
936,953	73,6952
937,122	-15,78026
937,292	-76,12948
937,461	-3,29476
937,631	-65,72414
937,8	54,96854
937,969	-61,56203
938,139	42,48388
938,308	23,75655
938,477	-28,26596
938,647	7,10969
938,816	36,24148
938,985	17,51402
939,155	17,51402
939,324	-13,69933
939,493	-24,10404
939,662	15,43316
939,831	67,45302
940,001	46,64546
940,17	-51,15687
940,339	96,58278
940,508	-15,78026
940,677	79,93732
940,846	-34,50887
941,015	0,86704
941,184	-55,31892
941,353	25,83739
941,522	-71,96733
941,691	75,77591
941,86	9,19057
942,029	69,53375
942,198	25,83739
942,367	-26,18499
942,536	-11,61841
942,705	13,3523
942,873	-67,80519
943,042	9,19057
943,211	-74,0484
943,38	90,34077
943,549	-13,69933
943,717	-53,23789
943,886	0,86704
944,055	-78,21057
944,224	-78,21057
944,392	2,94793
944,561	-55,31892
944,73	-32,42789
944,898	-42,83283
945,067	-109,42746
945,235	-13,69933
945,404	86,17941
945,572	9,19057
945,741	9,19057
945,91	-24,10404
946,078	-17,8612
946,247	-67,80519
946,415	-53,23789
946,583	-7,45657
946,752	5,02881
946,92	-28,26596
947,089	-40,75183
947,257	44,56467
947,425	-111,50863
947,594	-76,12948
947,762	15,43316
947,93	-15,78026
948,099	-38,67084
948,267	131,95333
948,435	-19,94214
948,603	-103,18399
948,772	-69,88626
948,94	-22,02309
949,108	79,93732
949,276	-51,15687
949,444	-5,37566
949,612	-5,37566
949,78	90,34077
949,948	-9,53749
950,116	-19,94214
950,285	73,6952
950,453	-30,34692
950,621	25,83739
950,789	0,86704
950,957	-17,8612
951,124	-15,78026
951,292	-84,45385
951,46	-19,94214
951,628	-28,26596
951,796	63,29155
951,964	-65,72414
952,132	-169,78345
952,3	40,40309
952,467	52,88778
952,635	7,10969
952,803	-57,39995
952,971	-63,64308
953,138	25,83739
953,306	-92,7783
953,474	50,80701
953,641	-44,91383
953,809	-92,7783
953,977	-74,0484
954,144	13,3523
954,312	-19,94214
954,48	65,37229
954,647	-19,94214
954,815	134,0339
954,982	-17,8612
955,15	-30,34692
955,317	46,64546
955,485	-22,02309
955,652	-28,26596
955,82	-7,45657
955,987	36,24148
956,154	27,91822
956,322	11,27144
956,489	-59,48099
956,656	-107,3463
956,824	-76,12948
956,991	-17,8612
957,158	-46,99484
957,326	129,87275
957,493	84,09872
957,66	-7,45657
957,827	25,83739
957,994	-55,31892
958,162	-59,48099
958,329	0,86704
958,496	-61,56203
958,663	-40,75183
958,83	15,43316
958,997	38,32229
959,164	-44,91383
959,331	-1,21386
959,498	-44,91383
959,665	-82,37275
959,832	-76,12948
959,999	11,27144
960,166	71,61448
960,333	-22,02309
960,5	38,32229
960,667	-99,0217
960,834	-30,34692
961,001	-38,67084
961,168	-84,45385
961,334	-46,99484
961,501	38,32229
961,668	19,59487
961,835	-1,21386
962,002	-65,72414
962,168	-34,50887
962,335	-92,7783
962,502	23,75655
962,668	42,48388
962,835	5,02881
963,002	109,06667
963,168	-7,45657
963,335	29,99904
963,502	9,19057
963,668	48,72623
963,835	5,02881
964,001	29,99904
964,168	90,34077
964,334	-11,61841
964,501	0,86704
964,667	-84,45385
964,834	48,72623
965	0,86704
965,166	-1,21386
965,333	13,3523
965,499	13,3523
965,665	54,96854
965,832	13,3523
965,998	-24,10404
966,164	15,43316
966,331	7,10969
966,497	11,27144
966,663	-51,15687
966,829	25,83739
966,996	25,83739
967,162	-65,72414
967,328	-51,15687
967,494	-57,39995
967,66	54,96854
967,826	75,77591
967,992	-99,0217
968,158	21,67571
968,324	-24,10404
968,491	-13,69933
968,657	-7,45657
968,823	0,86704
968,988	-13,69933
969,154	-144,80802
969,32	52,88778
969,486	-107,3463
969,652	21,67571
969,818	11,27144
969,984	-71,96733
970,15	-13,69933
970,316	-57,39995
970,481	15,43316
970,647	-13,69933
970,813	-84,45385
970,979	-51,15687
971,144	9,19057
971,31	-11,61841
971,476	7,10969
971,642	17,51402
971,807	50,80701
971,973	-65,72414
972,138	11,27144
972,304	-3,29476
972,47	-57,39995
972,635	9,19057
972,801	63,29155
972,966	-113,5898
973,132	-71,96733
973,297	34,16067
973,463	-15,78026
973,628	11,27144
973,794	23,75655
973,959	44,56467
974,125	-3,29476
974,29	34,16067
974,455	40,40309
974,621	9,19057
974,786	-5,37566
974,951	-13,69933
975,117	-57,39995
975,282	-32,42789
975,447	-3,29476
975,612	32,07986
975,778	-46,99484
975,943	13,3523
976,108	25,83739
976,273	77,85662
976,438	-32,42789
976,603	-30,34692
976,768	111,1473
976,934	-153,13308
977,099	127,79216
977,264	25,83739
977,429	7,10969
977,594	-55,31892
977,759	-1,21386
977,924	-9,53749
978,089	-28,26596
978,254	71,61448
978,418	102,82475
978,583	-36,58985
978,748	34,16067
978,913	11,27144
979,078	7,10969
979,243	-1,21386
979,408	2,94793
979,572	-40,75183
979,737	-34,50887
979,902	-99,0217
980,067	5,02881
980,231	-22,02309
980,396	-40,75183
980,561	-28,26596
980,725	-57,39995
980,89	-30,34692
981,055	11,27144
981,219	-65,72414
981,384	40,40309
981,548	9,19057
981,713	-17,8612
981,877	-63,64308
982,042	79,93732
982,206	-32,42789
982,371	-119,83335
982,535	-32,42789
982,7	269,26096
982,864	-26,18499
983,029	-82,37275
983,193	-67,80519
983,357	-7,45657
983,522	52,88778
983,686	63,29155
983,85	46,64546
984,015	67,45302
984,179	100,7441
984,343	-13,69933
984,507	69,53375
984,672	57,0493
984,836	-32,42789
985	5,02881
985,164	-38,67084
985,328	40,40309
985,492	-94,85943
985,656	71,61448
985,821	-67,80519
985,985	-1,21386
986,149	21,67571
986,313	27,91822
986,477	-38,67084
986,641	-32,42789
986,805	13,3523
986,969	-9,53749
987,133	-46,99484
987,296	-63,64308
987,46	13,3523
987,624	69,53375
987,788	-69,88626
987,952	23,75655
988,116	-5,37566
988,28	65,37229
988,443	86,17941
988,607	-59,48099
988,771	-44,91383
988,935	98,66344
989,098	17,51402
989,262	7,10969
989,426	-40,75183
989,589	19,59487
989,753	-57,39995
989,917	-11,61841
990,08	21,67571
990,244	21,67571
990,407	-1,21386
990,571	5,02881
990,734	-5,37566
990,898	-51,15687
991,061	36,24148
991,225	42,48388
991,388	-34,50887
991,552	61,2108
991,715	0,86704
991,878	-80,29166
992,042	-53,23789
992,205	-11,61841
992,369	-22,02309
992,532	-28,26596
992,695	-17,8612
992,858	11,27144
993,022	57,0493
993,185	-63,64308
993,348	-117,75216
993,511	-44,91383
993,675	-34,50887
993,838	-3,29476
994,001	27,91822
994,164	-7,45657
994,327	90,34077
994,49	17,51402
994,653	32,07986
994,816	-55,31892
994,979	75,77591
995,142	-7,45657
995,305	-24,10404
995,468	21,67571
995,631	-42,83283
995,794	-3,29476
995,957	-32,42789
996,12	-24,10404
996,283	-22,02309
996,446	134,0339
996,609	-63,64308
996,772	88,26009
996,934	-19,94214
997,097	44,56467
997,26	13,3523
997,423	11,27144
997,585	-42,83283
997,748	32,07986
997,911	-30,34692
998,074	44,56467
998,236	-67,80519
998,399	-3,29476
998,561	-140,64552
998,724	-1,21386
998,887	61,2108
999,049	-61,56203
999,212	-26,18499
999,374	-128,15816
999,537	-28,26596
999,699	-126,07695
999,862	-76,12948
1000,024	-49,07585
1000,187	-38,67084
1000,349	40,40309
1000,512	-69,88626
1000,674	-32,42789
1000,836	-32,42789
1000,999	106,98603
1001,161	-103,18399
1001,323	-13,69933
1001,486	-24,10404
1001,648	-36,58985
1001,81	-65,72414
1001,972	7,10969
1002,134	-80,29166
1002,297	34,16067
1002,459	40,40309
1002,621	-53,23789
1002,783	59,13006
1002,945	-67,80519
1003,107	-15,78026
1003,269	50,80701
1003,432	36,24148
1003,594	-19,94214
1003,756	-36,58985
1003,918	-49,07585
1004,08	-61,56203
1004,242	-130,23937
1004,404	-1,21386
1004,565	-55,31892
1004,727	-11,61841
1004,889	-46,99484
1005,051	-17,8612
1005,213	59,13006
1005,375	27,91822
1005,537	-67,80519
1005,698	23,75655
1005,86	100,7441
1006,022	34,16067
1006,184	-17,8612
1006,345	0,86704
1006,507	0,86704
1006,669	-3,29476
1006,831	0,86704
1006,992	-44,91383
1007,154	13,3523
1007,315	-161,45823
1007,477	61,2108
1007,639	42,48388
1007,8	-9,53749
1007,962	57,0493
1008,123	-59,48099
1008,285	-42,83283
1008,446	-44,91383
1008,608	-78,21057
1008,769	29,99904
1008,931	-24,10404
1009,092	9,19057
1009,253	15,43316
1009,415	44,56467
1009,576	-101,10284
1009,737	-49,07585
1009,899	34,16067
1010,06	34,16067
1010,221	36,24148
1010,382	-65,72414
1010,544	38,32229
1010,705	9,19057
1010,866	129,87275
1011,027	23,75655
1011,188	-19,94214
1011,35	52,88778
1011,511	-3,29476
1011,672	-76,12948
1011,833	-24,10404
1011,994	161,08095
1012,155	-22,02309
1012,316	-121,91454
1012,477	13,3523
1012,638	-44,91383
1012,799	69,53375
1012,96	-46,99484
1013,121	-84,45385
1013,282	-26,18499
1013,443	111,1473
1013,604	73,6952
1013,765	-38,67084
1013,925	17,51402
1014,086	-69,88626
1014,247	-38,67084
1014,408	113,22792
1014,569	-38,67084
1014,729	-36,58985
1014,89	-42,83283
1015,051	36,24148
1015,211	-113,5898
1015,372	-22,02309
1015,533	23,75655
1015,693	-53,23789
1015,854	-113,5898
1016,015	-26,18499
1016,175	7,10969
1016,336	-74,0484
1016,496	-59,48099
1016,657	2,94793
1016,817	96,58278
1016,978	-57,39995
1017,138	-7,45657
1017,299	29,99904
1017,459	2,94793
1017,62	27,91822
1017,78	-40,75183
1017,94	63,29155
1018,101	-84,45385
1018,261	48,72623
1018,421	-22,02309
1018,582	50,80701
1018,742	-1,21386
1018,902	-61,56203
1019,062	-28,26596
1019,223	32,07986
1019,383	-7,45657
1019,543	-15,78026
1019,703	-5,37566
1019,863	-22,02309
1020,023	-15,78026
1020,184	-69,88626
1020,344	54,96854
1020,504	-17,8612
1020,664	-38,67084
1020,824	-15,78026
1020,984	-55,31892
1021,144	19,59487
1021,304	-69,88626
1021,464	-134,40182
1021,624	-69,88626
1021,784	-34,50887
1021,943	65,37229
1022,103	7,10969
1022,263	-7,45657
1022,423	-1,21386
1022,583	-169,78345
1022,743	-140,64552
1022,902	38,32229
1023,062	-103,18399
1023,222	-119,83335
1023,382	2,94793
1023,541	67,45302
1023,701	40,40309
1023,861	-51,15687
1024,02	57,0493
1024,18	-26,18499
1024,34	-69,88626
1024,499	-28,26596
1024,659	42,48388
1024,818	21,67571
1024,978	5,02881
1025,137	-26,18499
1025,297	36,24148
1025,456	25,83739
1025,616	11,27144
1025,775	-51,15687
1025,935	34,16067
1026,094	86,17941
1026,254	-15,78026
1026,413	-13,69933
1026,572	-90,69718
1026,732	5,02881
1026,891	-9,53749
1027,05	5,02881
1027,21	19,59487
1027,369	-28,26596
1027,528	-26,18499
1027,687	34,16067
1027,846	-22,02309
1028,006	-22,02309
1028,165	-59,48099
1028,324	34,16067
1028,483	0,86704
1028,642	23,75655
1028,801	40,40309
1028,96	104,90539
1029,119	-69,88626
1029,278	-53,23789
1029,437	-32,42789
1029,596	34,16067
1029,755	-42,83283
1029,914	-5,37566
1030,073	2,94793
1030,232	5,02881
1030,391	-19,94214
1030,55	21,67571
1030,709	32,07986
1030,868	-71,96733
1031,026	27,91822
1031,185	-22,02309
1031,344	-1,21386
1031,503	21,67571
1031,662	7,10969
1031,82	19,59487
1031,979	-46,99484
1032,138	67,45302
1032,296	-42,83283
1032,455	-61,56203
1032,614	19,59487
1032,772	-5,37566
1032,931	-53,23789
1033,089	-86,53496
1033,248	-5,37566
1033,407	-96,94056
1033,565	-71,96733
1033,724	-80,29166
1033,882	-42,83283
1034,04	32,07986
1034,199	11,27144
1034,357	-67,80519
1034,516	40,40309
1034,674	-53,23789
1034,832	63,29155
1034,991	-1,21386
1035,149	-69,88626
1035,307	-61,56203
1035,466	-42,83283
1035,624	40,40309
1035,782	-11,61841
1035,941	40,40309
1036,099	-30,34692
1036,257	-86,53496
1036,415	42,48388
1036,573	-34,50887
1036,731	-65,72414
1036,889	-9,53749
1037,048	57,0493
1037,206	17,51402
1037,364	-11,61841
1037,522	-44,91383
1037,68	-40,75183
1037,838	-7,45657
1037,996	-7,45657
1038,154	-7,45657
