
345,274	-237,25564
345,493	-237,25564
345,712	-237,25564
345,932	-283,04975
346,151	54,10156
346,37	-27,05206
346,59	-52,02396
346,809	-95,72657
347,028	-39,53792
347,247	33,29367
347,467	43,69768
347,686	-64,51019
347,905	29,13203
348,124	74,90895
348,343	60,34383
348,563	-16,64732
348,782	99,87716
349,001	-29,13302
349,22	18,72785
349,439	37,45529
349,658	-47,86193
349,877	68,66678
350,096	-49,94294
350,315	91,5545
350,534	29,13203
350,753	12,48528
350,972	-49,94294
351,191	-126,94412
351,41	52,02079
351,629	54,10156
351,848	24,97037
352,067	10,40441
352,286	10,40441
352,505	45,77846
352,724	41,61688
352,943	-52,02396
353,162	-4,1618
353,381	-74,91552
353,599	-29,13302
353,818	-47,86193
354,037	39,53609
354,256	16,647
354,475	18,72785
354,693	62,42457
354,912	0
355,131	-60,34809
355,35	-56,18602
355,568	41,61688
355,787	-29,13302
356,006	14,56614
356,224	27,0512
356,443	41,61688
356,661	35,37448
356,88	-12,48546
357,099	-22,89015
357,317	-16,64732
357,536	-43,69991
357,754	8,32354
357,973	104,03846
358,191	54,10156
358,41	6,24266
358,628	93,63517
358,847	160,21407
359,065	-66,59124
359,284	-95,72657
359,502	56,18232
359,721	-37,45693
359,939	41,61688
360,157	176,85801
360,376	54,10156
360,594	-60,34809
360,813	0
361,031	14,56614
361,249	-24,9711
361,467	24,97037
361,686	-31,21399
361,904	72,82823
362,122	-68,6723
362,341	-27,05206
362,559	89,47382
362,777	-8,32362
362,995	-52,02396
363,213	-47,86193
363,431	10,40441
363,65	93,63517
363,868	-72,83444
364,086	143,56981
364,304	-99,88884
364,522	49,94002
364,74	16,647
364,958	33,29367
365,176	-62,42914
365,394	43,69768
365,612	-10,40454
365,83	147,73091
366,048	-81,15878
366,266	-20,8092
366,484	-41,61891
366,702	18,72785
366,92	60,34383
367,138	-41,61891
367,356	12,48528
367,574	-14,56639
367,792	-4,1618
368,01	-49,94294
368,227	131,08642
368,445	8,32354
368,663	37,45529
368,881	-4,1618
369,099	-101,96998
369,316	47,85924
369,534	-43,69991
369,752	-37,45693
369,97	8,32354
370,187	-60,34809
370,405	-72,83444
370,623	97,7965
370,84	-29,13302
371,058	-43,69991
371,276	52,02079
371,493	-45,78092
371,711	10,40441
371,928	-29,13302
372,146	-47,86193
372,364	95,71584
372,581	33,29367
372,799	8,32354
373,016	-16,64732
373,234	24,97037
373,451	-33,29497
373,669	-27,05206
373,886	52,02079
374,103	6,24266
374,321	56,18232
374,538	14,56614
374,756	10,40441
374,973	29,13203
375,19	35,37448
375,408	-31,21399
375,625	81,15107
375,842	8,32354
376,06	33,29367
376,277	37,45529
376,494	0
376,712	-6,24271
376,929	35,37448
377,146	-64,51019
377,363	24,97037
377,581	14,56614
377,798	49,94002
378,015	-45,78092
378,232	-12,48546
378,449	2,08089
378,666	31,21285
378,883	-22,89015
379,101	-4,1618
379,318	-66,59124
379,535	-83,23988
379,752	72,82823
379,969	-33,29497
380,186	29,13203
380,403	156,05303
380,62	14,56614
380,837	-76,9966
381,054	47,85924
381,271	95,71584
381,488	-52,02396
381,705	10,40441
381,921	-68,6723
382,138	-43,69991
382,355	33,29367
382,572	-52,02396
382,789	-49,94294
383,006	14,56614
383,223	6,24266
383,439	39,53609
383,656	-14,56639
383,873	-72,83444
384,09	-39,53792
384,306	-60,34809
384,523	14,56614
384,74	79,07036
384,957	-41,61891
385,173	29,13203
385,39	2,08089
385,607	56,18232
385,823	-37,45693
386,04	-76,9966
386,256	12,48528
386,473	8,32354
386,69	6,24266
386,906	-54,10499
387,123	56,18232
387,339	70,74751
387,556	2,08089
387,772	-31,21399
387,989	-54,10499
388,205	-6,24271
388,422	-41,61891
388,638	-91,56432
388,855	83,23176
389,071	83,23176
389,287	33,29367
389,504	68,66678
389,72	68,66678
389,937	-18,72826
390,153	2,08089
390,369	27,0512
390,585	45,77846
390,802	33,29367
391,018	-52,02396
391,234	-24,9711
391,451	-87,40209
391,667	-20,8092
391,883	10,40441
392,099	14,56614
392,315	35,37448
392,532	-33,29497
392,748	79,07036
392,964	12,48528
393,18	114,44162
393,396	-33,29497
393,612	47,85924
393,828	-120,70051
394,044	37,45529
394,26	22,88954
394,477	31,21285
394,693	-47,86193
394,909	37,45529
395,125	70,74751
395,341	39,53609
395,557	39,53609
395,772	0
395,988	133,167
396,204	91,5545
396,42	-10,40454
396,636	-27,05206
396,852	31,21285
397,068	-14,56639
397,284	39,53609
397,5	39,53609
397,715	35,37448
397,931	-22,89015
398,147	24,97037
398,363	-10,40454
398,578	14,56614
398,794	-49,94294
399,01	12,48528
399,226	72,82823
399,441	35,37448
399,657	-52,02396
399,873	47,85924
400,088	33,29367
400,304	-27,05206
400,52	-8,32362
400,735	-56,18602
400,951	52,02079
401,166	35,37448
401,382	35,37448
401,597	52,02079
401,813	66,58605
402,029	-4,1618
402,244	-20,8092
402,46	87,39314
402,675	66,58605
402,89	-64,51019
403,106	8,32354
403,321	83,23176
403,537	-79,07769
403,752	22,88954
403,968	4,16178
404,183	64,50531
404,398	-18,72826
404,614	87,39314
404,829	-68,6723
405,044	37,45529
405,26	10,40441
405,475	31,21285
405,69	24,97037
405,905	6,24266
406,121	-12,48546
406,336	-12,48546
406,551	14,56614
406,766	93,63517
406,981	-22,89015
407,196	66,58605
407,412	-49,94294
407,627	-64,51019
407,842	133,167
408,057	62,42457
408,272	-31,21399
408,487	-56,18602
408,702	-16,64732
408,917	72,82823
409,132	37,45529
409,347	-20,8092
409,562	20,80869
409,777	-35,37595
409,992	35,37448
410,207	-79,07769
410,422	41,61688
410,637	-33,29497
410,852	-18,72826
411,067	0
411,282	-104,05113
411,496	2,08089
411,711	-106,13229
411,926	85,31245
412,141	22,88954
412,356	29,13203
412,571	29,13203
412,785	74,90895
413	-4,1618
413,215	-43,69991
413,429	41,61688
413,644	16,647
413,859	27,0512
414,074	-41,61891
414,288	31,21285
414,503	-43,69991
414,718	85,31245
414,932	37,45529
415,147	-22,89015
415,361	-18,72826
415,576	81,15107
415,79	-45,78092
416,005	-49,94294
416,22	-24,9711
416,434	14,56614
416,649	10,40441
416,863	-8,32362
417,077	-56,18602
417,292	-6,24271
417,506	218,46651
417,721	-29,13302
417,935	139,4087
418,15	-37,45693
418,364	41,61688
418,578	49,94002
418,793	70,74751
419,007	2,08089
419,221	-24,9711
419,436	-2,0809
419,65	-85,32098
419,864	74,90895
420,078	66,58605
420,293	97,7965
420,507	-22,89015
420,721	27,0512
420,935	-56,18602
421,149	39,53609
421,364	-101,96998
421,578	45,77846
421,792	-91,56432
422,006	4,16178
422,22	56,18232
422,434	135,24757
422,648	-108,21345
422,862	226,78798
423,076	74,90895
423,29	76,98966
423,504	-20,8092
423,718	64,50531
423,932	4,16178
424,146	56,18232
424,36	66,58605
424,574	87,39314
424,788	43,69768
425,002	62,42457
425,216	106,1191
425,43	-27,05206
425,644	83,23176
425,858	-49,94294
426,071	-33,29497
426,285	-39,53792
426,499	60,34383
426,713	31,21285
426,927	114,44162
427,14	-68,6723
427,354	174,77754
427,568	-8,32362
427,782	106,1191
427,995	31,21285
428,209	35,37448
428,423	35,37448
428,636	-64,51019
428,85	-27,05206
429,063	-6,24271
429,277	87,39314
429,491	-24,9711
429,704	74,90895
429,918	-2,0809
430,131	33,29367
430,345	-8,32362
430,558	-72,83444
430,772	35,37448
430,985	-35,37595
431,199	-2,0809
431,412	-22,89015
431,626	-49,94294
431,839	41,61688
432,053	-14,56639
432,266	27,0512
432,479	62,42457
432,693	2,08089
432,906	64,50531
433,119	33,29367
433,333	8,32354
433,546	83,23176
433,759	4,16178
433,973	18,72785
434,186	118,60285
434,399	106,1191
434,612	72,82823
434,825	137,32814
435,039	-12,48546
435,252	-8,32362
435,465	139,4087
435,678	-106,13229
435,891	33,29367
436,104	-37,45693
436,318	60,34383
436,531	-47,86193
436,744	20,80869
436,957	89,47382
437,17	0
437,383	-54,10499
437,596	-16,64732
437,809	24,97037
438,022	81,15107
438,235	-72,83444
438,448	16,647
438,661	89,47382
438,874	31,21285
439,086	-27,05206
439,299	66,58605
439,512	85,31245
439,725	81,15107
439,938	93,63517
440,151	6,24266
440,364	68,66678
440,576	-20,8092
440,789	22,88954
441,002	37,45529
441,215	22,88954
441,427	37,45529
441,64	-16,64732
441,853	22,88954
442,066	45,77846
442,278	-14,56639
442,491	4,16178
442,704	31,21285
442,916	39,53609
443,129	95,71584
443,341	95,71584
443,554	0
443,767	-31,21399
443,979	85,31245
444,192	133,167
444,404	70,74751
444,617	22,88954
444,829	-16,64732
445,042	99,87716
445,254	76,98966
445,467	12,48528
445,679	126,92525
445,892	39,53609
446,104	56,18232
446,316	-99,88884
446,529	20,80869
446,741	-62,42914
446,953	97,7965
447,166	56,18232
447,378	-10,40454
447,59	24,97037
447,803	95,71584
448,015	131,08642
448,227	76,98966
448,439	60,34383
448,652	-39,53792
448,864	54,10156
449,076	110,28037
449,288	116,52223
449,5	-62,42914
449,712	33,29367
449,925	-49,94294
450,137	99,87716
450,349	-35,37595
450,561	116,52223
450,773	-18,72826
450,985	31,21285
451,197	14,56614
451,409	56,18232
451,621	-6,24271
451,833	72,82823
452,045	56,18232
452,257	2,08089
452,469	-27,05206
452,681	-70,75337
452,893	-60,34809
453,105	93,63517
453,317	49,94002
453,529	35,37448
453,74	37,45529
453,952	-93,64544
454,164	4,16178
454,376	-43,69991
454,588	-79,07769
454,799	-74,91552
455,011	-31,21399
455,223	-45,78092
455,435	10,40441
455,646	20,80869
455,858	-72,83444
456,07	62,42457
456,281	-8,32362
456,493	37,45529
456,705	37,45529
456,916	-120,70051
457,128	54,10156
457,34	-76,9966
457,551	0
457,763	74,90895
457,974	74,90895
458,186	91,5545
458,397	60,34383
458,609	-6,24271
458,82	-6,24271
459,032	-27,05206
459,243	164,37508
459,455	116,52223
459,666	0
459,878	29,13203
460,089	39,53609
460,3	-81,15878
460,512	101,95781
460,723	68,66678
460,934	33,29367
461,146	-14,56639
461,357	203,90376
461,568	41,61688
461,78	54,10156
461,991	56,18232
462,202	-16,64732
462,413	74,90895
462,625	126,92525
462,836	20,80869
463,047	-60,34809
463,258	-27,05206
463,469	-35,37595
463,68	-24,9711
463,891	66,58605
464,103	6,24266
464,314	-22,89015
464,525	-18,72826
464,736	101,95781
464,947	-18,72826
465,158	10,40441
465,369	-66,59124
465,58	-35,37595
465,791	12,48528
466,002	2,08089
466,213	-37,45693
466,424	-14,56639
466,635	-85,32098
466,846	87,39314
467,056	-49,94294
467,267	8,32354
467,478	-33,29497
467,689	-64,51019
467,9	-133,18777
468,111	-93,64544
468,322	-14,56639
468,532	18,72785
468,743	-112,37578
468,954	-2,0809
469,165	60,34383
469,375	8,32354
469,586	-41,61891
469,797	74,90895
470,007	-2,0809
470,218	20,80869
470,429	43,69768
470,639	114,44162
470,85	6,24266
471,061	43,69768
471,271	-41,61891
471,482	70,74751
471,692	39,53609
471,903	-6,24271
472,113	-16,64732
472,324	14,56614
472,534	29,13203
472,745	-64,51019
472,955	-54,10499
473,166	-43,69991
473,376	-10,40454
473,587	16,647
473,797	4,16178
474,007	49,94002
474,218	-14,56639
474,428	122,76406
474,638	101,95781
474,849	41,61688
475,059	31,21285
475,269	-87,40209
475,48	-52,02396
475,69	-29,13302
475,9	52,02079
476,11	-68,6723
476,321	158,13355
476,531	-52,02396
476,741	24,97037
476,951	-45,78092
477,161	-6,24271
477,371	-43,69991
477,581	6,24266
477,792	-76,9966
478,002	8,32354
478,212	141,48926
478,422	-101,96998
478,632	35,37448
478,842	-2,0809
479,052	-60,34809
479,262	64,50531
479,472	39,53609
479,682	-62,42914
479,892	76,98966
480,102	76,98966
480,312	39,53609
480,522	35,37448
480,731	4,16178
480,941	91,5545
481,151	-74,91552
481,361	-22,89015
481,571	-66,59124
481,781	49,94002
481,991	151,89198
482,2	64,50531
482,41	-83,23988
482,62	10,40441
482,83	18,72785
483,039	-4,1618
483,249	81,15107
483,459	52,02079
483,668	45,77846
483,878	-66,59124
484,088	-29,13302
484,297	-43,69991
484,507	58,26308
484,716	-33,29497
484,926	-2,0809
485,136	-12,48546
485,345	60,34383
485,555	-47,86193
485,764	-10,40454
485,974	43,69768
486,183	137,32814
486,393	70,74751
486,602	37,45529
486,812	-14,56639
487,021	45,77846
487,23	62,42457
487,44	-58,26705
487,649	-66,59124
487,859	99,87716
488,068	45,77846
488,277	12,48528
488,487	-72,83444
488,696	-64,51019
488,905	-2,0809
489,115	29,13203
489,324	66,58605
489,533	-45,78092
489,742	108,19974
489,951	31,21285
490,161	0
490,37	-68,6723
490,579	-62,42914
490,788	-22,89015
490,997	-35,37595
491,206	60,34383
491,415	-14,56639
491,625	12,48528
491,834	-29,13302
492,043	-27,05206
492,252	-8,32362
492,461	-99,88884
492,67	74,90895
492,879	16,647
493,088	-85,32098
493,297	126,92525
493,506	-85,32098
493,715	85,31245
493,924	31,21285
494,132	-52,02396
494,341	33,29367
494,55	135,24757
494,759	8,32354
494,968	76,98966
495,177	72,82823
495,386	114,44162
495,594	79,07036
495,803	60,34383
496,012	45,77846
496,221	-27,05206
496,429	101,95781
496,638	41,61688
496,847	83,23176
497,055	16,647
497,264	27,0512
497,473	95,71584
497,681	60,34383
497,89	156,05303
498,099	52,02079
498,307	-74,91552
498,516	91,5545
498,724	29,13203
498,933	-27,05206
499,141	0
499,35	27,0512
499,558	64,50531
499,767	24,97037
499,975	52,02079
500,184	85,31245
500,392	-8,32362
500,601	47,85924
500,809	47,85924
501,018	20,80869
501,226	-8,32362
501,434	18,72785
501,643	89,47382
501,851	147,73091
502,059	-66,59124
502,268	56,18232
502,476	58,26308
502,684	110,28037
502,892	122,76406
503,101	110,28037
503,309	76,98966
503,517	-22,89015
503,725	12,48528
503,933	-72,83444
504,141	-54,10499
504,35	-37,45693
504,558	-79,07769
504,766	8,32354
504,974	-12,48546
505,182	24,97037
505,39	-24,9711
505,598	24,97037
505,806	10,40441
506,014	74,90895
506,222	131,08642
506,43	2,08089
506,638	72,82823
506,846	29,13203
507,054	-6,24271
507,262	56,18232
507,47	-20,8092
507,678	64,50531
507,886	-4,1618
508,094	58,26308
508,301	76,98966
508,509	112,36099
508,717	27,0512
508,925	12,48528
509,133	-14,56639
509,34	33,29367
509,548	62,42457
509,756	-8,32362
509,964	37,45529
510,171	124,84466
510,379	6,24266
510,587	-12,48546
510,794	76,98966
511,002	12,48528
511,21	10,40441
511,417	-52,02396
511,625	112,36099
511,832	-20,8092
512,04	-54,10499
512,247	-16,64732
512,455	-60,34809
512,663	66,58605
512,87	33,29367
513,078	29,13203
513,285	31,21285
513,492	-72,83444
513,7	18,72785
513,907	-68,6723
514,115	-70,75337
514,322	-35,37595
514,529	24,97037
514,737	-58,26705
514,944	10,40441
515,152	29,13203
515,359	-18,72826
515,566	89,47382
515,773	60,34383
515,981	-8,32362
516,188	-95,72657
516,395	27,0512
516,602	72,82823
516,81	-24,9711
517,017	39,53609
517,224	41,61688
517,431	-4,1618
517,638	-10,40454
517,845	2,08089
518,053	14,56614
518,26	-14,56639
518,467	-45,78092
518,674	-22,89015
518,881	-8,32362
519,088	135,24757
519,295	-8,32362
519,502	74,90895
519,709	-58,26705
519,916	-14,56639
520,123	33,29367
520,33	85,31245
520,537	-81,15878
520,744	-18,72826
520,95	112,36099
521,157	-6,24271
521,364	108,19974
521,571	8,32354
521,778	43,69768
521,985	116,52223
522,191	4,16178
522,398	39,53609
522,605	-85,32098
522,812	24,97037
523,019	18,72785
523,225	-116,53814
523,432	-18,72826
523,639	-6,24271
523,845	31,21285
524,052	87,39314
524,259	-85,32098
524,465	6,24266
524,672	-104,05113
524,878	56,18232
525,085	-54,10499
525,292	-14,56639
525,498	52,02079
525,705	137,32814
525,911	60,34383
526,118	58,26308
526,324	20,80869
526,531	54,10156
526,737	41,61688
526,944	16,647
527,15	60,34383
527,356	-8,32362
527,563	41,61688
527,769	-64,51019
527,975	10,40441
528,182	-79,07769
528,388	18,72785
528,594	39,53609
528,801	49,94002
529,007	-54,10499
529,213	129,00584
529,42	145,65036
529,626	47,85924
529,832	52,02079
530,038	-83,23988
530,244	29,13203
530,451	20,80869
530,657	-10,40454
530,863	12,48528
531,069	35,37448
531,275	-20,8092
531,481	74,90895
531,687	-47,86193
531,893	-45,78092
532,099	12,48528
532,305	45,77846
532,511	6,24266
532,717	-8,32362
532,923	-70,75337
533,129	91,5545
533,335	49,94002
533,541	60,34383
533,747	14,56614
533,953	-49,94294
534,159	56,18232
534,365	2,08089
534,571	16,647
534,777	31,21285
534,982	27,0512
535,188	52,02079
535,394	95,71584
535,6	68,66678
535,806	31,21285
536,011	0
536,217	-12,48546
536,423	12,48528
536,628	49,94002
536,834	-72,83444
537,04	-60,34809
537,245	41,61688
537,451	29,13203
537,657	85,31245
537,862	-37,45693
538,068	-106,13229
538,273	10,40441
538,479	79,07036
538,685	83,23176
538,89	-16,64732
539,096	-29,13302
539,301	-54,10499
539,507	-29,13302
539,712	6,24266
539,917	14,56614
540,123	187,26032
540,328	-16,64732
540,534	41,61688
540,739	93,63517
540,944	-52,02396
541,15	37,45529
541,355	68,66678
541,56	106,1191
541,766	-4,1618
541,971	-64,51019
542,176	-116,53814
542,382	74,90895
542,587	18,72785
542,792	-37,45693
542,997	12,48528
543,202	-60,34809
543,408	31,21285
543,613	70,74751
543,818	-16,64732
544,023	-41,61891
544,228	6,24266
544,433	22,88954
544,638	20,80869
544,843	35,37448
545,049	76,98966
545,254	-64,51019
545,459	43,69768
545,664	74,90895
545,869	70,74751
546,074	-20,8092
546,279	54,10156
546,483	-29,13302
546,688	-31,21399
546,893	0
547,098	-12,48546
547,303	-33,29497
547,508	58,26308
547,713	41,61688
547,918	14,56614
548,122	-129,02533
548,327	-6,24271
548,532	27,0512
548,737	56,18232
548,942	52,02079
549,146	-16,64732
549,351	33,29367
549,556	-24,9711
549,76	-47,86193
549,965	79,07036
550,17	-35,37595
550,374	-22,89015
550,579	-64,51019
550,784	49,94002
550,988	12,48528
551,193	-81,15878
551,397	-8,32362
551,602	70,74751
551,806	-18,72826
552,011	12,48528
552,215	58,26308
552,42	-22,89015
552,624	33,29367
552,829	-2,0809
553,033	24,97037
553,238	31,21285
553,442	-37,45693
553,646	-27,05206
553,851	-22,89015
554,055	31,21285
554,26	14,56614
554,464	41,61688
554,668	-14,56639
554,872	120,68345
555,077	43,69768
555,281	43,69768
555,485	101,95781
555,69	29,13203
555,894	4,16178
556,098	129,00584
556,302	-41,61891
556,506	24,97037
556,71	99,87716
556,915	191,42121
557,119	58,26308
557,323	-14,56639
557,527	89,47382
557,731	143,56981
557,935	205,98416
558,139	126,92525
558,343	108,19974
558,547	280,87567
558,751	203,90376
558,955	114,44162
559,159	133,167
559,363	289,19657
559,567	172,69705
559,771	278,79543
559,975	226,78798
560,179	185,17987
560,382	243,43069
560,586	226,78798
560,79	224,70762
560,994	216,38613
561,198	241,35037
561,402	270,47444
561,605	220,54689
561,809	139,4087
562,013	193,50164
562,217	264,23365
562,42	199,74292
562,624	216,38613
562,828	181,01895
563,031	245,51101
563,235	210,14497
563,439	218,46651
563,642	293,35699
563,846	205,98416
564,049	178,93848
564,253	158,13355
564,456	249,67163
564,66	224,70762
564,863	201,82334
565,067	270,47444
565,27	272,5547
565,474	247,59132
565,677	181,01895
565,881	341,20048
566,084	149,81145
566,288	201,82334
566,491	226,78798
566,694	214,30575
566,898	201,82334
567,101	297,51739
567,304	270,47444
567,508	249,67163
567,711	280,87567
567,914	233,02903
568,118	293,35699
568,321	282,9559
568,524	276,71519
568,727	181,01895
568,93	293,35699
569,134	208,06457
569,337	197,6625
569,54	332,88005
569,743	193,50164
569,946	199,74292
570,149	330,79993
570,352	201,82334
570,555	210,14497
570,758	208,06457
570,962	255,91252
571,165	235,10937
571,368	178,93848
571,571	233,02903
571,774	222,62726
571,976	305,83814
572,179	345,36067
572,382	233,02903
572,585	247,59132
572,788	301,67777
572,991	380,7215
573,194	224,70762
573,397	239,27004
573,6	364,08128
573,802	362,00123
574,005	280,87567
574,208	289,19657
574,411	401,52137
574,613	276,71519
574,816	428,56051
575,019	322,47941
575,222	343,28057
575,424	274,63495
575,627	362,00123
575,83	341,20048
576,032	285,03613
576,235	374,48145
576,438	447,27947
576,64	374,48145
576,843	443,11973
577,045	278,79543
577,248	351,60091
577,45	301,67777
577,653	517,99221
577,855	416,081
578,058	386,96151
578,26	499,27464
578,463	386,96151
578,665	619,89268
578,868	443,11973
579,07	324,55955
579,272	522,15162
579,475	341,20048
579,677	536,70942
579,879	457,67873
580,082	638,60794
580,284	538,78909
580,486	480,5567
580,689	499,27464
580,891	567,90397
581,093	621,97217
581,295	663,56108
581,498	538,78909
581,7	580,38151
581,902	628,21062
582,104	700,98962
582,306	730,09974
582,508	659,40227
582,71	730,09974
582,913	890,1906
583,115	836,13673
583,317	962,95103
583,519	965,02983
583,721	1029,47048
583,923	979,58128
584,125	1048,17834
584,327	1016,9984
584,529	1091,82873
584,731	1145,86965
584,933	1216,53453
585,135	1233,1609
585,336	1297,58577
585,538	1376,55316
585,74	1474,21579
585,942	1538,62705
586,144	1576,0255
586,346	1627,96582
586,547	1862,7078
586,749	1817,00942
586,951	1765,07734
587,153	1846,09041
587,355	1997,71575
587,556	2163,85909
587,758	2199,16169
587,96	2406,80402
588,161	2616,48834
588,363	2556,28547
588,565	2722,35549
588,766	2934,06371
588,968	3133,2868
589,17	3251,56098
589,371	3394,72047
589,573	3502,59825
589,774	3591,79802
589,976	3757,73446
590,177	4099,9095
590,379	4340,41251
590,58	4506,24901
590,782	4709,36745
590,983	4904,16242
591,185	5351,65081
591,386	5629,1685
591,587	5997,69946
591,789	6252,28128
591,99	6709,53548
592,192	6986,67736
592,393	7476,63878
592,594	7672,95981
592,796	8024,15715
592,997	8569,24557
593,198	9037,63441
593,399	9423,26776
593,601	9903,4752
593,802	10338,05771
594,003	10906,09777
594,204	11214,61183
594,405	11738,75071
594,607	12258,35583
594,808	12888,29223
595,009	13396,70475
595,21	13812,55816
595,411	14496,17256
595,612	14537,08414
595,813	15289,39186
596,014	15787,7264
596,215	16259,16914
596,416	16624,26446
596,617	16942,29465
596,818	17215,36339
597,019	17944,42302
597,22	18115,38992
597,421	18654,52134
597,622	18658,58898
597,823	18863,98088
598,024	19199,42399
598,225	19707,45286
598,426	19721,67409
598,627	19963,40657
598,827	19829,34301
599,028	20010,12194
599,229	20393,93009
599,43	20006,05981
599,63	19977,62449
599,831	20004,02874
600,032	20101,51607
600,233	19815,12319
600,433	20071,05216
600,634	19849,65671
600,835	19481,91927
601,035	19441,27737
601,236	19296,98539
601,437	18941,24507
601,637	18721,63504
601,838	18304,6334
602,038	18402,29081
602,239	17907,78257
602,439	17793,77935
602,64	17305,00584
602,841	17162,3878
603,041	16652,8114
603,241	16628,34266
603,442	16281,61068
603,642	15918,37539
603,843	15642,75787
604,043	15338,42508
604,244	15044,17047
604,444	14960,36524
604,644	14463,44141
604,845	14084,86459
605,045	13767,50362
605,245	13620,02978
605,446	13443,83501
605,646	13177,39996
605,846	12853,42626
606,046	12533,3893
606,247	12356,88905
606,447	12420,51693
606,647	12003,7407
606,847	11672,99978
607,047	11590,80164
607,248	11300,96974
607,448	11000,72413
607,648	10753,84442
607,848	10523,34087
608,048	10424,52948
608,248	10195,97317
608,448	10099,17413
608,648	9682,99098
608,848	9744,81592
609,048	9427,39108
609,248	9169,6386
609,448	8938,61594
609,648	8849,90083
609,848	8901,48065
610,048	8577,5016
610,248	8259,58191
610,448	8131,55238
610,648	7966,32311
610,847	7984,91307
611,047	7606,83565
611,247	7625,43359
611,447	7189,31013
611,647	7201,71474
611,846	7005,28838
612,046	6922,56983
612,246	6721,94658
612,446	6651,61485
612,645	6380,58246
612,845	6390,9286
613,045	6328,85012
613,244	6003,90953
613,444	6043,23912
613,644	5904,54384
613,843	5660,22947
614,043	5459,35267
614,243	5380,6485
614,442	5374,43478
614,642	5264,65315
614,841	5038,84189
615,041	5020,19491
615,24	4860,64722
615,44	5082,35033
615,639	4719,7297
615,839	4699,0051
616,038	4481,37499
616,237	4514,54024
616,437	4512,46743
616,636	4257,48576
616,836	4371,50858
617,035	4095,76249
617,234	4033,5556
617,434	4174,5534
617,633	3904,98486
617,832	3884,24641
618,032	3965,12443
618,231	3780,54903
618,43	3838,62061
618,629	3712,1041
618,828	3788,84513
619,028	3556,53374
619,227	3658,17519
619,426	3741,14179
619,625	3654,02672
619,824	3699,65917
620,023	3409,24301
620,222	3373,9737
620,422	3515,0451
620,621	3425,83999
620,82	3340,77818
621,019	3427,9146
621,218	3268,16
621,417	3255,71075
621,616	3261,93539
621,815	3176,86276
622,014	3087,63422
622,213	3095,93481
622,411	3226,66205
622,61	3071,03288
622,809	3108,38559
623,008	3066,88252
623,207	3261,93539
623,406	3087,63422
623,605	3033,67909
623,803	2873,87569
624,002	3102,16022
624,201	2888,40409
624,4	2905,00777
624,598	3002,55011
624,797	3131,21172
624,996	2996,32422
625,195	2855,19608
625,393	2743,11274
625,592	2813,68487
625,791	2902,93232
625,989	2871,80019
626,188	2772,17232
626,386	2807,45807
626,585	2730,65843
626,784	2714,0525
626,982	2622,71606
627,181	2693,29479
627,379	2790,85313
627,578	2722,35549
627,776	2527,221
627,975	2639,32317
628,173	2749,33984
628,371	2645,55078
628,57	2552,13344
628,768	2699,52214
628,967	2631,01964
629,165	2649,7025
629,363	2498,15588
629,562	2687,06741
629,76	2496,07977
629,958	2572,89344
630,157	2537,60125
630,355	2643,47491
630,553	2597,80499
630,751	2643,47491
630,95	2481,54694
631,148	2564,58948
631,346	2616,48834
631,544	2618,56425
631,742	2616,48834
631,94	2531,37311
632,139	2506,46027
632,337	2658,00591
632,535	2574,96942
632,733	2682,91581
632,931	2768,02099
633,129	2606,10873
633,327	2819,91163
633,525	2753,49123
633,723	2699,52214
633,921	2711,97674
634,119	2784,62622
634,317	2747,26415
634,515	2780,47493
634,713	2732,73416
634,91	2954,81755
635,108	3006,70068
635,306	2992,17362
635,504	2963,11899
635,702	3077,25841
635,9	3017,07706
636,097	3023,30285
636,295	3264,01026
636,493	3299,28258
636,691	3419,61615
636,888	3371,89901
637,086	3454,8842
637,284	3500,52376
637,482	3571,05444
637,679	3739,0677
637,877	3654,02672
638,075	3828,25088
638,272	3651,95248
638,47	3902,91103
638,667	3861,43372
638,865	3840,69455
639,062	4238,82647
639,26	4290,65713
639,457	4251,26603
639,655	4346,63179
639,852	4398,45787
640,05	4410,8958
640,247	4713,51236
640,445	4674,13511
640,642	4792,2629
640,84	4721,80214
641,037	4798,47982
641,234	5078,20674
641,432	4960,10812
641,629	4993,25984
641,826	5086,4939
642,024	5084,42212
642,221	5355,79338
642,418	5219,08022
642,615	5214,93714
642,813	5368,22101
643,01	5509,05763
643,207	5540,12207
643,404	5513,19961
643,602	5701,64268
643,799	5587,75248
643,996	5567,04387
644,193	5823,80217
644,39	5772,04141
644,587	5863,13864
644,784	5693,36017
644,981	5856,92772
645,178	5972,85878
645,375	6212,95984
645,572	6200,54223
645,769	6194,33336
645,966	6159,14905
646,163	6287,46229
646,36	6212,95984
646,557	6504,72889
646,754	6337,12748
646,951	6653,68351
647,148	6506,79787
647,345	6833,63909
647,542	6488,17695
647,738	7094,20245
647,935	6728,15207
648,132	6877,07145
648,329	6978,40567
648,526	7133,48728
648,722	6794,34139
648,919	6972,20186
649,116	7150,02775
649,312	7096,27012
649,509	7021,83119
649,706	7166,56791
649,902	7085,93174
650,099	7195,51246
650,296	7077,66096
650,492	7127,28453
650,689	7162,4329
650,885	7294,74377
651,082	7114,87889
651,278	7298,87816
651,475	7096,27012
651,671	7048,71262
651,868	6924,63788
652,064	7123,14933
652,261	7166,56791
652,457	7056,98367
652,654	7040,4415
652,85	6941,18215
653,047	6825,36603
653,243	6744,69983
653,439	6792,27305
653,636	6539,90082
653,832	6659,88944
654,028	6635,06545
654,224	6496,45296
654,421	6643,34019
654,617	6326,78077
654,813	6328,85012
655,009	6295,74
655,206	6231,58598
655,402	6183,98516
655,598	6241,93368
655,794	6130,17282
655,99	6005,97955
656,186	5925,24581
656,383	5846,5761
656,579	5867,27923
656,775	5707,85452
656,971	5608,46069
657,167	5651,94663
657,363	5500,77363
657,559	5411,71661
657,755	5343,36561
657,951	5289,51032
658,147	5328,86637
658,343	5103,06804
658,539	5241,86692
658,735	5103,06804
658,93	5067,8477
659,126	5013,97918
659,322	4871,00813
659,518	4974,61212
659,714	4767,39488
659,91	4626,46616
660,105	4458,57335
660,301	4618,17571
660,497	4429,55246
660,693	4562,21367
660,888	4450,28174
661,084	4334,1932
661,28	4155,89285
661,476	4174,5534
661,671	4050,1444
661,867	4093,68897
662,062	4060,5123
662,258	3946,46073
662,454	4000,37732
662,649	3834,47273
662,845	3778,475
663,04	3587,64933
663,236	3649,87823
663,431	3763,95666
663,627	3519,19403
663,822	3471,48059
664,018	3326,25487
664,213	3340,77818
664,409	3151,96239
664,604	3286,83363
664,799	3347,00241
664,995	3183,08778
665,19	3210,0625
665,386	3050,28091
665,581	2971,42038
665,776	2848,96948
665,972	2840,66731
666,167	2718,204
666,362	2707,82522
666,557	2684,99161
666,753	2616,48834
666,948	2533,44916
667,143	2703,67369
667,338	2824,06279
667,533	2604,0328
667,728	2437,94744
667,924	2516,84068
668,119	2402,65151
668,314	2500,23198
668,509	2311,29279
668,704	2402,65151
668,899	2437,94744
669,094	2238,61636
669,289	2192,93189
669,484	2188,77867
669,679	2222,00402
669,874	2136,8623
670,069	2253,15199
670,264	1989,408
670,459	2170,08903
670,654	2082,86699
670,849	2047,56109
671,043	1906,32738
671,238	1916,71277
671,433	1960,33042
671,628	1925,02101
671,823	1945,79138
672,018	1825,31834
672,212	1841,93602
672,407	1735,99439
672,602	1746,38124
672,797	1831,55
672,991	1949,94541
673,186	1605,11237
673,381	1885,55635
673,575	1806,62318
673,77	1659,12892
673,965	1609,26757
674,159	1657,0514
674,354	1694,4461
674,548	1617,57794
674,743	1742,22651
674,937	1596,80191
675,132	1642,5087
675,326	1636,27606
675,521	1467,98226
675,715	1463,82655
675,91	1615,50036
676,104	1630,04339
676,299	1578,10316
676,493	1409,80095
676,687	1457,59295
676,882	1455,51508
677,076	1407,72299
677,271	1370,31909
677,465	1376,55316
677,659	1314,21094
677,853	1324,60155
678,048	1330,83587
678,242	1428,5024
678,436	1418,11274
678,63	1303,82024
678,825	1260,17823
679,019	1366,16303
679,213	1316,28907
679,407	1210,29957
679,601	1295,50761
679,795	1305,89839
679,99	1314,21094
680,184	1181,20265
680,378	1231,08262
680,572	1208,22125
680,766	1191,5945
680,96	1287,19491
681,154	1133,3989
681,348	1199,9079
681,542	1123,00651
681,736	1164,5755
681,93	1120,92802
682,124	1123,00651
682,317	1081,43594
682,511	1150,02653
682,705	1091,82873
682,899	1091,82873
683,093	1179,12427
683,287	1125,085
683,481	1106,37847
683,674	1044,02106
683,868	1106,37847
684,062	1195,75121
684,256	1064,80726
684,449	1125,085
684,643	1135,47737
684,837	1120,92802
685,03	1037,78512
685,224	1091,82873
685,418	1177,04589
685,611	1160,41867
685,805	1116,77102
685,999	1195,75121
686,192	981,66005
686,386	1035,70647
686,579	1035,70647
686,773	1048,17834
686,966	1129,24196
687,16	1021,15578
687,353	1023,23446
687,547	1077,27879
687,74	996,21127
687,934	1004,52617
688,127	1062,72866
688,32	1066,88586
688,514	1031,54915
688,707	1004,52617
688,9	1029,47048
689,094	1125,085
689,287	973,34497
689,48	1033,62781
689,674	1062,72866
689,867	954,63581
690,06	886,03271
690,253	954,63581
690,447	1048,17834
690,64	1041,94242
690,833	1120,92802
691,026	1135,47737
691,219	1004,52617
691,412	921,37426
691,605	1027,39181
691,799	904,74309
691,992	1002,44746
692,185	950,47817
692,378	962,95103
692,571	998,29001
692,764	1150,02653
692,957	969,18741
693,15	948,39935
693,343	946,32052
693,536	992,0538
693,729	1081,43594
693,921	1014,91971
694,114	925,53201
694,307	1008,6836
694,5	1127,16348
694,693	1008,6836
694,886	950,47817
695,079	960,87223
695,271	915,1376
695,464	1081,43594
695,657	1077,27879
695,85	952,55699
696,042	944,24169
696,235	1137,55583
696,428	1066,88586
696,62	1035,70647
696,813	998,29001
697,006	994,13254
697,198	1004,52617
697,391	1068,96446
697,584	1023,23446
697,776	1083,5145
697,969	994,13254
698,161	1016,9984
698,354	1044,02106
698,546	1062,72866
698,739	989,97506
698,931	1118,84952
699,124	1093,90728
699,316	1152,10497
699,509	1029,47048
699,701	1154,1834
699,893	1168,73231
700,086	1023,23446
700,278	1098,06436
700,47	1129,24196
700,663	1150,02653
700,855	1127,16348
701,047	1108,45699
701,24	1041,94242
701,432	946,32052
701,624	1098,06436
701,816	1039,86377
702,008	1172,88911
702,201	1085,59307
702,393	1095,98582
702,585	1075,20022
702,777	1154,1834
702,969	1004,52617
703,161	1177,04589
703,353	1095,98582
703,546	1222,76945
703,738	1095,98582
703,93	1170,81071
704,122	1068,96446
704,314	1025,31314
704,506	1158,34025
704,698	1095,98582
704,89	1137,55583
705,082	1156,26183
705,273	1056,49283
705,465	1035,70647
705,657	1179,12427
705,849	1095,98582
706,041	1145,86965
706,233	1033,62781
706,425	1098,06436
706,616	1133,3989
706,808	1137,55583
707	1054,41421
707,192	985,81756
707,383	1141,71275
707,575	1152,10497
707,767	1241,474
707,959	1137,55583
708,15	994,13254
708,342	1081,43594
708,534	1189,51614
708,725	1123,00651
708,917	1170,81071
709,108	1098,06436
709,3	1037,78512
709,491	1116,77102
709,683	1179,12427
709,875	1000,36873
710,066	1191,5945
710,258	1079,35737
710,449	1073,12163
710,64	1100,14289
710,832	1256,02176
711,023	1073,12163
711,215	1258,1
711,406	1091,82873
711,597	1131,32043
711,789	1054,41421
711,98	1183,28103
712,171	965,02983
712,363	1044,02106
712,554	1021,15578
712,745	1041,94242
712,937	1064,80726
713,128	1091,82873
713,319	1143,7912
713,51	917,21649
713,701	1014,91971
713,893	1016,9984
714,084	1039,86377
714,275	1010,76231
714,466	1002,44746
714,657	946,32052
714,848	994,13254
715,039	983,7388
715,23	977,50252
715,421	994,13254
715,612	879,79584
715,803	1060,65006
715,994	915,1376
716,185	1093,90728
716,376	852,76899
716,567	1012,84101
716,758	965,02983
716,949	921,37426
717,14	965,02983
717,331	1006,60489
717,522	1075,20022
717,712	913,05871
717,903	921,37426
718,094	925,53201
718,285	979,58128
718,476	906,822
718,666	908,90091
718,857	983,7388
719,048	844,45289
719,238	900,58526
719,429	838,21577
719,62	777,9217
719,81	831,97862
720,001	786,23834
720,192	807,02963
720,382	879,79584
720,573	811,18783
720,763	792,47577
720,954	748,81295
721,144	871,47996
721,335	867,322
721,525	736,33752
721,716	823,66236
721,906	759,20903
722,097	792,47577
722,287	736,33752
722,478	678,11679
722,668	700,98962
722,858	628,21062
723,049	840,29482
723,239	682,27552
723,429	802,8714
723,62	757,12982
723,81	578,30193
724	680,19616
724,191	721,78265
724,381	649,00516
724,571	684,35488
724,761	811,18783
724,951	621,97217
725,142	717,62408
725,332	646,92572
725,522	594,93844
725,712	615,73368
725,902	626,13114
726,092	503,43413
726,282	651,08459
726,472	624,05165
726,662	609,49515
726,852	594,93844
727,042	569,98357
727,232	582,46108
727,422	621,97217
727,612	694,75163
727,802	561,66514
727,992	624,05165
728,182	547,10771
728,372	617,81318
728,562	474,31731
728,752	590,77934
728,942	538,78909
729,131	509,67333
729,321	528,3907
729,511	513,83278
729,701	538,78909
729,89	522,15162
730,08	524,23132
730,27	495,11513
730,46	463,91823
730,649	430,64041
730,839	434,80021
731,029	376,56147
731,218	441,03986
731,408	389,0415
731,597	472,2375
731,787	345,36067
731,977	549,18736
732,166	384,88151
732,356	455,59888
732,545	409,84119
732,735	561,66514
732,924	376,56147
733,114	324,55955
733,303	355,76105
733,492	482,63649
733,682	386,96151
733,871	399,4414
734,061	405,68129
734,25	393,20148
734,439	355,76105
734,629	370,32139
734,818	493,03536
735,007	468,07787
735,197	341,20048
735,386	376,56147
735,575	357,84111
735,764	357,84111
735,954	424,40069
736,143	318,31912
736,332	366,16132
736,521	480,5567
736,71	347,44075
736,899	368,24136
737,088	357,84111
737,278	355,76105
737,467	322,47941
737,656	364,08128
737,845	366,16132
738,034	343,28057
738,223	384,88151
738,412	343,28057
738,601	318,31912
738,79	330,79993
738,979	212,22536
739,168	324,55955
739,356	332,88005
739,545	287,11635
739,734	339,12038
739,923	303,75796
740,112	414,00107
740,301	322,47941
740,489	328,71981
740,678	368,24136
740,867	257,99281
741,056	355,76105
741,245	359,92117
741,433	337,04027
741,622	424,40069
741,811	268,39418
741,999	368,24136
742,188	307,91831
742,377	366,16132
742,565	372,40143
742,754	278,79543
742,942	266,31392
743,131	293,35699
743,319	289,19657
743,508	176,85801
743,697	287,11635
743,885	334,96016
744,073	291,27678
744,262	230,94869
744,45	212,22536
744,639	270,47444
744,827	249,67163
745,016	351,60091
745,204	297,51739
745,392	320,39927
745,581	307,91831
745,769	326,63968
745,957	212,22536
746,146	210,14497
746,334	228,86834
746,522	106,1191
746,71	299,59759
746,899	249,67163
747,087	212,22536
747,275	257,99281
747,463	197,6625
747,651	222,62726
747,84	218,46651
748,028	282,9559
748,216	181,01895
748,404	239,27004
748,592	226,78798
748,78	224,70762
748,968	268,39418
749,156	218,46651
749,344	131,08642
749,532	257,99281
749,72	197,6625
749,908	191,42121
750,096	153,97251
750,284	230,94869
750,472	343,28057
750,66	272,5547
750,847	297,51739
751,035	299,59759
751,223	197,6625
751,411	312,07865
751,599	185,17987
751,787	197,6625
751,974	222,62726
752,162	210,14497
752,35	153,97251
752,537	282,9559
752,725	156,05303
752,913	118,60285
753,101	241,35037
753,288	120,68345
753,476	243,43069
753,663	197,6625
753,851	99,87716
754,039	260,07309
754,226	116,52223
754,414	87,39314
754,601	330,79993
754,789	139,4087
754,976	79,07036
755,164	139,4087
755,351	153,97251
755,539	172,69705
755,726	255,91252
755,913	187,26032
756,101	205,98416
756,288	195,58207
756,476	197,6625
756,663	343,28057
756,85	191,42121
757,037	235,10937
757,225	104,03846
757,412	97,7965
757,599	79,07036
757,787	376,56147
757,974	174,77754
758,161	187,26032
758,348	151,89198
758,535	249,67163
758,722	249,67163
758,91	101,95781
759,097	120,68345
759,284	195,58207
759,471	81,15107
759,658	64,50531
759,845	220,54689
760,032	220,54689
760,219	170,61657
760,406	164,37508
760,593	156,05303
760,78	282,9559
760,967	83,23176
761,154	141,48926
761,341	193,50164
761,528	226,78798
761,715	126,92525
761,901	135,24757
762,088	126,92525
762,275	129,00584
762,462	129,00584
762,649	170,61657
762,835	0
763,022	220,54689
763,209	124,84466
763,396	91,5545
763,582	174,77754
763,769	147,73091
763,956	187,26032
764,142	81,15107
764,329	122,76406
764,516	147,73091
764,702	264,23365
764,889	124,84466
765,075	168,53608
765,262	135,24757
765,448	214,30575
765,635	106,1191
765,821	147,73091
766,008	112,36099
766,194	87,39314
766,381	326,63968
766,567	135,24757
766,754	201,82334
766,94	108,19974
767,127	129,00584
767,313	124,84466
767,499	87,39314
767,686	224,70762
767,872	101,95781
768,058	108,19974
768,244	193,50164
768,431	129,00584
768,617	72,82823
768,803	178,93848
768,989	151,89198
769,176	66,58605
769,362	41,61688
769,548	160,21407
769,734	183,09941
769,92	99,87716
770,106	122,76406
770,292	181,01895
770,478	124,84466
770,664	226,78798
770,851	126,92525
771,037	64,50531
771,223	151,89198
771,409	114,44162
771,594	124,84466
771,78	124,84466
771,966	205,98416
772,152	74,90895
772,338	39,53609
772,524	126,92525
772,71	185,17987
772,896	185,17987
773,082	201,82334
773,267	151,89198
773,453	124,84466
773,639	104,03846
773,825	120,68345
774,011	112,36099
774,196	74,90895
774,382	143,56981
774,568	104,03846
774,753	133,167
774,939	199,74292
775,125	118,60285
775,31	137,32814
775,496	49,94002
775,681	201,82334
775,867	39,53609
776,053	95,71584
776,238	45,77846
776,424	93,63517
776,609	83,23176
776,795	106,1191
776,98	174,77754
777,166	153,97251
777,351	145,65036
777,536	72,82823
777,722	101,95781
777,907	118,60285
778,093	49,94002
778,278	108,19974
778,463	201,82334
778,649	187,26032
778,834	-4,1618
779,019	97,7965
779,204	135,24757
779,39	149,81145
779,575	170,61657
779,76	129,00584
779,945	255,91252
780,13	83,23176
780,316	93,63517
780,501	74,90895
780,686	99,87716
780,871	39,53609
781,056	147,73091
781,241	116,52223
781,426	156,05303
781,611	18,72785
781,796	52,02079
781,981	93,63517
782,166	52,02079
782,351	205,98416
782,536	87,39314
782,721	83,23176
782,906	16,647
783,091	66,58605
783,276	43,69768
783,461	124,84466
783,646	214,30575
783,83	93,63517
784,015	76,98966
784,2	116,52223
784,385	193,50164
784,57	218,46651
784,754	228,86834
784,939	0
785,124	60,34383
785,308	20,80869
785,493	62,42457
785,678	49,94002
785,862	139,4087
786,047	166,45558
786,232	170,61657
786,416	83,23176
786,601	52,02079
786,785	47,85924
786,97	52,02079
787,154	99,87716
787,339	39,53609
787,523	120,68345
787,708	68,66678
787,892	87,39314
788,077	164,37508
788,261	10,40441
788,446	162,29458
788,63	87,39314
788,814	41,61688
788,999	139,4087
789,183	87,39314
789,367	95,71584
789,552	24,97037
789,736	181,01895
789,92	31,21285
790,104	233,02903
790,289	49,94002
790,473	35,37448
790,657	47,85924
790,841	131,08642
791,025	122,76406
791,21	-18,72826
791,394	20,80869
791,578	-31,21399
791,762	122,76406
791,946	122,76406
792,13	-18,72826
792,314	178,93848
792,498	37,45529
792,682	172,69705
792,866	64,50531
793,05	47,85924
793,234	79,07036
793,418	99,87716
793,602	18,72785
793,786	81,15107
793,97	97,7965
794,153	79,07036
794,337	-31,21399
794,521	183,09941
794,705	126,92525
794,889	60,34383
795,073	24,97037
795,256	145,65036
795,44	97,7965
795,624	158,13355
795,807	153,97251
795,991	64,50531
796,175	-16,64732
796,358	156,05303
796,542	81,15107
796,726	170,61657
796,909	31,21285
797,093	114,44162
797,277	114,44162
797,46	93,63517
797,644	99,87716
797,827	81,15107
798,011	10,40441
798,194	27,0512
798,378	133,167
798,561	101,95781
798,744	160,21407
798,928	79,07036
799,111	45,77846
799,295	93,63517
799,478	-58,26705
799,661	45,77846
799,845	145,65036
800,028	45,77846
800,211	37,45529
800,395	172,69705
800,578	-20,8092
800,761	91,5545
800,944	145,65036
801,127	29,13203
801,311	-10,40454
801,494	-16,64732
801,677	10,40441
801,86	12,48528
802,043	54,10156
802,226	64,50531
802,409	68,66678
802,593	12,48528
802,776	45,77846
802,959	16,647
803,142	-22,89015
803,325	54,10156
803,508	58,26308
803,691	104,03846
803,874	2,08089
804,056	108,19974
804,239	37,45529
804,422	114,44162
804,605	95,71584
804,788	66,58605
804,971	89,47382
805,154	37,45529
805,336	135,24757
805,519	74,90895
805,702	27,0512
805,885	6,24266
806,068	0
806,25	41,61688
806,433	27,0512
806,616	95,71584
806,798	72,82823
806,981	56,18232
807,164	76,98966
807,346	-12,48546
807,529	-12,48546
807,711	93,63517
807,894	-6,24271
808,076	20,80869
808,259	-79,07769
808,442	49,94002
808,624	58,26308
808,806	99,87716
808,989	29,13203
809,171	20,80869
809,354	39,53609
809,536	101,95781
809,719	85,31245
809,901	74,90895
810,083	87,39314
810,266	47,85924
810,448	-41,61891
810,63	74,90895
810,813	52,02079
810,995	99,87716
811,177	68,66678
811,359	89,47382
811,542	214,30575
811,724	70,74751
811,906	-47,86193
812,088	29,13203
812,27	-6,24271
812,452	6,24266
812,634	49,94002
812,817	-8,32362
812,999	133,167
813,181	49,94002
813,363	10,40441
813,545	10,40441
813,727	10,40441
813,909	18,72785
814,091	-22,89015
814,273	116,52223
814,455	153,97251
814,637	-66,59124
814,818	183,09941
815	20,80869
815,182	47,85924
815,364	33,29367
815,546	-22,89015
815,728	143,56981
815,909	-66,59124
816,091	97,7965
816,273	35,37448
816,455	141,48926
816,636	16,647
816,818	47,85924
817	18,72785
817,182	-20,8092
817,363	97,7965
817,545	39,53609
817,726	106,1191
817,908	79,07036
818,09	-120,70051
818,271	156,05303
818,453	-6,24271
818,634	81,15107
818,816	12,48528
818,997	70,74751
819,179	60,34383
819,36	20,80869
819,542	118,60285
819,723	91,5545
819,905	62,42457
820,086	158,13355
820,267	12,48528
820,449	87,39314
820,63	27,0512
820,811	-49,94294
820,993	122,76406
821,174	316,23897
821,355	-12,48546
821,536	-74,91552
821,718	106,1191
821,899	106,1191
822,08	-60,34809
822,261	-4,1618
822,442	-14,56639
822,624	-27,05206
822,805	22,88954
822,986	-31,21399
823,167	33,29367
823,348	-4,1618
823,529	2,08089
823,71	97,7965
823,891	45,77846
824,072	72,82823
824,253	124,84466
824,434	29,13203
824,615	89,47382
824,796	99,87716
824,977	189,34076
825,158	114,44162
825,339	0
825,52	68,66678
825,7	110,28037
825,881	14,56614
826,062	-31,21399
826,243	47,85924
826,424	-16,64732
826,604	129,00584
826,785	-76,9966
826,966	62,42457
827,147	-114,45696
827,327	139,4087
827,508	95,71584
827,689	68,66678
827,869	-70,75337
828,05	58,26308
828,231	2,08089
828,411	112,36099
828,592	-12,48546
828,772	70,74751
828,953	47,85924
829,133	95,71584
829,314	37,45529
829,494	-8,32362
829,675	41,61688
829,855	68,66678
830,036	12,48528
830,216	-16,64732
830,396	-22,89015
830,577	-31,21399
830,757	54,10156
830,938	-133,18777
831,118	-22,89015
831,298	12,48528
831,479	62,42457
831,659	37,45529
831,839	-2,0809
832,019	66,58605
832,199	54,10156
832,38	12,48528
832,56	33,29367
832,74	76,98966
832,92	114,44162
833,1	-95,72657
833,28	-129,02533
833,461	-31,21399
833,641	-24,9711
833,821	-22,89015
834,001	-99,88884
834,181	145,65036
834,361	4,16178
834,541	-64,51019
834,721	-99,88884
834,901	-27,05206
835,081	4,16178
835,261	29,13203
835,44	58,26308
835,62	-81,15878
835,8	56,18232
835,98	66,58605
836,16	120,68345
836,34	-10,40454
836,52	-45,78092
836,699	2,08089
836,879	89,47382
837,059	66,58605
837,239	-31,21399
837,418	16,647
837,598	-83,23988
837,778	85,31245
837,957	-68,6723
838,137	-99,88884
838,317	43,69768
838,496	39,53609
838,676	-16,64732
838,855	-85,32098
839,035	43,69768
839,214	33,29367
839,394	85,31245
839,573	68,66678
839,753	39,53609
839,932	112,36099
840,112	-131,10655
840,291	62,42457
840,471	83,23176
840,65	-39,53792
840,829	87,39314
841,009	91,5545
841,188	87,39314
841,367	-56,18602
841,547	-29,13302
841,726	20,80869
841,905	-56,18602
842,085	-20,8092
842,264	4,16178
842,443	12,48528
842,622	129,00584
842,801	-41,61891
842,981	108,19974
843,16	-37,45693
843,339	108,19974
843,518	12,48528
843,697	2,08089
843,876	-139,43147
844,055	45,77846
844,234	39,53609
844,413	-33,29497
844,592	29,13203
844,771	-29,13302
844,95	137,32814
845,129	2,08089
845,308	101,95781
845,487	58,26308
845,666	20,80869
845,845	20,80869
846,024	-29,13302
846,202	-4,1618
846,381	-22,89015
846,56	-95,72657
846,739	8,32354
846,918	-33,29497
847,096	45,77846
847,275	45,77846
847,454	-24,9711
847,633	60,34383
847,811	-27,05206
847,99	112,36099
848,169	-58,26705
848,347	47,85924
848,526	45,77846
848,704	39,53609
848,883	149,81145
849,062	-14,56639
849,24	-72,83444
849,419	-8,32362
849,597	10,40441
849,776	43,69768
849,954	49,94002
850,133	62,42457
850,311	-114,45696
850,49	4,16178
850,668	-24,9711
850,846	-52,02396
851,025	-12,48546
851,203	-58,26705
851,381	37,45529
851,56	10,40441
851,738	47,85924
851,916	0
852,095	39,53609
852,273	54,10156
852,451	29,13203
852,629	2,08089
852,807	93,63517
852,986	68,66678
853,164	-99,88884
853,342	-12,48546
853,52	54,10156
853,698	70,74751
853,876	-20,8092
854,054	176,85801
854,232	29,13203
854,41	91,5545
854,588	74,90895
854,766	-49,94294
854,944	95,71584
855,122	-29,13302
855,3	56,18232
855,478	2,08089
855,656	135,24757
855,834	-8,32362
856,012	8,32354
856,19	6,24266
856,368	-16,64732
856,545	-16,64732
856,723	151,89198
856,901	143,56981
857,079	-27,05206
857,256	35,37448
857,434	-47,86193
857,612	-49,94294
857,79	-45,78092
857,967	-6,24271
858,145	4,16178
858,323	83,23176
858,5	6,24266
858,678	33,29367
858,855	24,97037
859,033	91,5545
859,211	-64,51019
859,388	35,37448
859,566	10,40441
859,743	27,0512
859,921	64,50531
860,098	0
860,276	4,16178
860,453	-4,1618
860,63	-91,56432
860,808	-35,37595
860,985	68,66678
861,162	79,07036
861,34	-54,10499
861,517	-31,21399
861,694	10,40441
861,872	37,45529
862,049	58,26308
862,226	-24,9711
862,403	16,647
862,581	8,32354
862,758	54,10156
862,935	-6,24271
863,112	-52,02396
863,289	-18,72826
863,467	114,44162
863,644	-70,75337
863,821	91,5545
863,998	-18,72826
864,175	118,60285
864,352	6,24266
864,529	104,03846
864,706	14,56614
864,883	27,0512
865,06	-49,94294
865,237	31,21285
865,414	20,80869
865,591	93,63517
865,768	-29,13302
865,944	72,82823
866,121	39,53609
866,298	124,84466
866,475	87,39314
866,652	33,29367
866,829	6,24266
867,005	-56,18602
867,182	-68,6723
867,359	83,23176
867,536	22,88954
867,712	-14,56639
867,889	-4,1618
868,066	76,98966
868,242	60,34383
868,419	22,88954
868,596	108,19974
868,772	0
868,949	133,167
869,125	-12,48546
869,302	85,31245
869,478	6,24266
869,655	72,82823
869,831	6,24266
870,008	-58,26705
870,184	174,77754
870,361	22,88954
870,537	2,08089
870,714	-131,10655
870,89	-64,51019
871,066	10,40441
871,243	101,95781
871,419	-41,61891
871,595	133,167
871,772	-24,9711
871,948	24,97037
872,124	-12,48546
872,3	-110,29461
872,477	31,21285
872,653	39,53609
872,829	60,34383
873,005	-16,64732
873,181	-2,0809
873,357	27,0512
873,533	-43,69991
873,71	66,58605
873,886	93,63517
874,062	18,72785
874,238	20,80869
874,414	56,18232
874,59	-2,0809
874,766	41,61688
874,942	145,65036
875,118	12,48528
875,294	-60,34809
875,47	-43,69991
875,645	97,7965
875,821	-87,40209
875,997	33,29367
876,173	-14,56639
876,349	-22,89015
876,525	-18,72826
876,7	-41,61891
876,876	-39,53792
877,052	70,74751
877,228	4,16178
877,403	-56,18602
877,579	-14,56639
877,755	70,74751
877,931	8,32354
878,106	58,26308
878,282	-74,91552
878,457	0
878,633	-66,59124
878,809	47,85924
878,984	-35,37595
879,16	-89,4832
879,335	-35,37595
879,511	-52,02396
879,686	-60,34809
879,862	85,31245
880,037	58,26308
880,213	-97,8077
880,388	-89,4832
880,563	22,88954
880,739	70,74751
880,914	-35,37595
881,089	24,97037
881,265	37,45529
881,44	-72,83444
881,615	29,13203
881,791	31,21285
881,966	6,24266
882,141	-41,61891
882,316	-37,45693
882,492	-37,45693
882,667	18,72785
882,842	-47,86193
883,017	81,15107
883,192	-29,13302
883,367	20,80869
883,542	-24,9711
883,718	8,32354
883,893	35,37448
884,068	8,32354
884,243	45,77846
884,418	-56,18602
884,593	-22,89015
884,768	-24,9711
884,943	-6,24271
885,117	20,80869
885,292	41,61688
885,467	66,58605
885,642	64,50531
885,817	66,58605
885,992	83,23176
886,167	147,73091
886,342	106,1191
886,516	-35,37595
886,691	118,60285
886,866	39,53609
887,041	151,89198
887,215	151,89198
887,39	18,72785
887,565	58,26308
887,739	101,95781
887,914	79,07036
888,089	-49,94294
888,263	62,42457
888,438	-27,05206
888,612	74,90895
888,787	4,16178
888,962	35,37448
889,136	20,80869
889,311	-18,72826
889,485	31,21285
889,659	20,80869
889,834	79,07036
890,008	29,13203
890,183	-81,15878
890,357	2,08089
890,532	-16,64732
890,706	54,10156
890,88	16,647
891,055	-4,1618
891,229	66,58605
891,403	31,21285
891,577	-20,8092
891,752	-56,18602
891,926	20,80869
892,1	52,02079
892,274	64,50531
892,449	-12,48546
892,623	-120,70051
892,797	-16,64732
892,971	0
893,145	47,85924
893,319	0
893,493	20,80869
893,667	14,56614
893,841	47,85924
894,015	-22,89015
894,189	-72,83444
894,363	41,61688
894,537	-47,86193
894,711	-85,32098
894,885	116,52223
895,059	-24,9711
895,233	-39,53792
895,407	4,16178
895,581	64,50531
895,755	-27,05206
895,928	2,08089
896,102	41,61688
896,276	-12,48546
896,45	18,72785
896,623	2,08089
896,797	-66,59124
896,971	31,21285
897,145	20,80869
897,318	33,29367
897,492	87,39314
897,666	-64,51019
897,839	2,08089
898,013	-91,56432
898,186	-56,18602
898,36	-112,37578
898,534	74,90895
898,707	-20,8092
898,881	-60,34809
899,054	-66,59124
899,228	-49,94294
899,401	-14,56639
899,574	99,87716
899,748	-56,18602
899,921	60,34383
900,095	-60,34809
900,268	45,77846
900,441	22,88954
900,615	-16,64732
900,788	-66,59124
900,961	93,63517
901,135	-45,78092
901,308	72,82823
901,481	-31,21399
901,654	81,15107
901,828	0
902,001	-62,42914
902,174	-47,86193
902,347	4,16178
902,52	10,40441
902,693	-52,02396
902,866	87,39314
903,04	-8,32362
903,213	74,90895
903,386	-4,1618
903,559	22,88954
903,732	-54,10499
903,905	2,08089
904,078	-31,21399
904,251	-24,9711
904,424	-14,56639
904,596	16,647
904,769	-41,61891
904,942	41,61688
905,115	2,08089
905,288	12,48528
905,461	31,21285
905,634	-72,83444
905,806	-47,86193
905,979	-41,61891
906,152	133,167
906,325	2,08089
906,497	-41,61891
906,67	-54,10499
906,843	-43,69991
907,015	-89,4832
907,188	20,80869
907,361	-6,24271
907,533	-24,9711
907,706	-131,10655
907,878	24,97037
908,051	-66,59124
908,224	29,13203
908,396	-68,6723
908,569	12,48528
908,741	-27,05206
908,914	72,82823
909,086	41,61688
909,258	-31,21399
909,431	-20,8092
909,603	-14,56639
909,776	93,63517
909,948	6,24266
910,12	20,80869
910,293	4,16178
910,465	133,167
910,637	8,32354
910,81	14,56614
910,982	-54,10499
911,154	-83,23988
911,326	-35,37595
911,498	10,40441
911,671	-27,05206
911,843	-79,07769
912,015	18,72785
912,187	-14,56639
912,359	16,647
912,531	72,82823
912,703	-70,75337
912,875	8,32354
913,047	66,58605
913,219	97,7965
913,391	-60,34809
913,563	-20,8092
913,735	-43,69991
913,907	135,24757
914,079	27,0512
914,251	2,08089
914,423	8,32354
914,595	64,50531
914,767	-66,59124
914,939	145,65036
915,11	62,42457
915,282	-72,83444
915,454	-14,56639
915,626	-35,37595
915,797	54,10156
915,969	8,32354
916,141	-24,9711
916,313	58,26308
916,484	126,92525
916,656	29,13203
916,828	2,08089
916,999	56,18232
917,171	-6,24271
917,342	0
917,514	20,80869
917,685	0
917,857	-122,78171
918,028	24,97037
918,2	-52,02396
918,371	-33,29497
918,543	31,21285
918,714	-24,9711
918,886	47,85924
919,057	-2,0809
919,229	-56,18602
919,4	31,21285
919,571	-31,21399
919,743	22,88954
919,914	76,98966
920,085	-41,61891
920,256	56,18232
920,428	41,61688
920,599	97,7965
920,77	58,26308
920,941	-6,24271
921,113	81,15107
921,284	-10,40454
921,455	-18,72826
921,626	97,7965
921,797	-91,56432
921,968	52,02079
922,139	-27,05206
922,31	35,37448
922,481	2,08089
922,652	118,60285
922,823	-12,48546
922,994	-35,37595
923,165	4,16178
923,336	-41,61891
923,507	74,90895
923,678	116,52223
923,849	-10,40454
924,02	-37,45693
924,191	6,24266
924,362	-31,21399
924,532	18,72785
924,703	-27,05206
924,874	-162,32543
925,045	85,31245
925,215	-33,29497
925,386	4,16178
925,557	10,40441
925,728	-91,56432
925,898	37,45529
926,069	-35,37595
926,24	95,71584
926,41	24,97037
926,581	27,0512
926,751	116,52223
926,922	-31,21399
927,092	41,61688
927,263	2,08089
927,433	-33,29497
927,604	-47,86193
927,774	-66,59124
927,945	-14,56639
928,115	16,647
928,286	-31,21399
928,456	45,77846
928,627	-22,89015
928,797	-20,8092
928,967	10,40441
929,138	12,48528
929,308	-29,13302
929,478	29,13203
929,648	-29,13302
929,819	66,58605
929,989	91,5545
930,159	58,26308
930,329	-49,94294
930,5	-16,64732
930,67	-35,37595
930,84	-93,64544
931,01	-68,6723
931,18	97,7965
931,35	-27,05206
931,52	-52,02396
931,69	131,08642
931,86	31,21285
932,03	-18,72826
932,2	-56,18602
932,37	-68,6723
932,54	-6,24271
932,71	35,37448
932,88	35,37448
933,05	-70,75337
933,22	-89,4832
933,39	62,42457
933,56	-16,64732
933,73	33,29367
933,899	-99,88884
934,069	29,13203
934,239	45,77846
934,409	-47,86193
934,578	10,40441
934,748	60,34383
934,918	-12,48546
935,088	62,42457
935,257	-112,37578
935,427	-62,42914
935,596	-79,07769
935,766	-12,48546
935,936	-16,64732
936,105	-54,10499
936,275	33,29367
936,444	-29,13302
936,614	0
936,783	60,34383
936,953	-20,8092
937,122	-31,21399
937,292	-33,29497
937,461	-76,9966
937,631	-16,64732
937,8	-41,61891
937,969	-33,29497
938,139	39,53609
938,308	-6,24271
938,477	18,72785
938,647	-47,86193
938,816	35,37448
938,985	-39,53792
939,155	-20,8092
939,324	37,45529
939,493	-29,13302
939,662	66,58605
939,831	87,39314
940,001	99,87716
940,17	33,29367
940,339	24,97037
940,508	-118,61932
940,677	29,13203
940,846	47,85924
941,015	-2,0809
941,184	-10,40454
941,353	39,53609
941,522	4,16178
941,691	60,34383
941,86	10,40441
942,029	64,50531
942,198	-2,0809
942,367	-33,29497
942,536	20,80869
942,705	-37,45693
942,873	27,0512
943,042	2,08089
943,211	10,40441
943,38	66,58605
943,549	-4,1618
943,717	-16,64732
943,886	-62,42914
944,055	16,647
944,224	60,34383
944,392	183,09941
944,561	-72,83444
944,73	-45,78092
944,898	-27,05206
945,067	-37,45693
945,235	39,53609
945,404	58,26308
945,572	0
945,741	-10,40454
945,91	-41,61891
946,078	-10,40454
946,247	31,21285
946,415	14,56614
946,583	-52,02396
946,752	27,0512
946,92	-47,86193
947,089	47,85924
947,257	-97,8077
947,425	-27,05206
947,594	8,32354
947,762	-41,61891
947,93	14,56614
948,099	99,87716
948,267	47,85924
948,435	-22,89015
948,603	-64,51019
948,772	18,72785
948,94	-27,05206
949,108	18,72785
949,276	-41,61891
949,444	-54,10499
949,612	-87,40209
949,78	43,69768
949,948	-29,13302
950,116	-39,53792
950,285	70,74751
950,453	-24,9711
950,621	-24,9711
950,789	-62,42914
950,957	-70,75337
951,124	24,97037
951,292	-14,56639
951,46	-60,34809
951,628	79,07036
951,796	62,42457
951,964	-31,21399
952,132	-41,61891
952,3	22,88954
952,467	49,94002
952,635	83,23176
952,803	-29,13302
952,971	-93,64544
953,138	72,82823
953,306	-97,8077
953,474	-52,02396
953,641	4,16178
953,809	-89,4832
953,977	-14,56639
954,144	-24,9711
954,312	-85,32098
954,48	70,74751
954,647	58,26308
954,815	95,71584
954,982	43,69768
955,15	81,15107
955,317	-16,64732
955,485	-97,8077
955,652	-33,29497
955,82	-83,23988
955,987	39,53609
956,154	22,88954
956,322	-12,48546
956,489	31,21285
956,656	85,31245
956,824	-114,45696
956,991	10,40441
957,158	-112,37578
957,326	81,15107
957,493	70,74751
957,66	33,29367
957,827	83,23176
957,994	24,97037
958,162	-72,83444
958,329	70,74751
958,496	-43,69991
958,663	2,08089
958,83	2,08089
958,997	41,61688
959,164	-37,45693
959,331	-31,21399
959,498	4,16178
959,665	-8,32362
959,832	-14,56639
959,999	0
960,166	137,32814
960,333	116,52223
960,5	118,60285
960,667	8,32354
960,834	-56,18602
961,001	24,97037
961,168	-114,45696
961,334	-91,56432
961,501	-31,21399
961,668	-33,29497
961,835	56,18232
962,002	-33,29497
962,168	-72,83444
962,335	37,45529
962,502	-14,56639
962,668	-14,56639
962,835	27,0512
963,002	12,48528
963,168	24,97037
963,335	0
963,502	62,42457
963,668	58,26308
963,835	0
964,001	-10,40454
964,168	-68,6723
964,334	8,32354
964,501	6,24266
964,667	-27,05206
964,834	-60,34809
965	6,24266
965,166	39,53609
965,333	-10,40454
965,499	-14,56639
965,665	14,56614
965,832	-35,37595
965,998	-2,0809
966,164	-2,0809
966,331	95,71584
966,497	18,72785
966,663	-89,4832
966,829	-18,72826
966,996	97,7965
967,162	-79,07769
967,328	-54,10499
967,494	-4,1618
967,66	47,85924
967,826	-31,21399
967,992	-29,13302
968,158	4,16178
968,324	4,16178
968,491	-72,83444
968,657	37,45529
968,823	20,80869
968,988	4,16178
969,154	-16,64732
969,32	45,77846
969,486	-129,02533
969,652	-24,9711
969,818	37,45529
969,984	-35,37595
970,15	41,61688
970,316	-41,61891
970,481	-18,72826
970,647	-24,9711
970,813	60,34383
970,979	-35,37595
971,144	-27,05206
971,31	47,85924
971,476	-22,89015
971,642	-37,45693
971,807	122,76406
971,973	27,0512
972,138	-47,86193
972,304	-29,13302
972,47	4,16178
972,635	-39,53792
972,801	108,19974
972,966	-112,37578
973,132	37,45529
973,297	12,48528
973,463	4,16178
973,628	-76,9966
973,794	-62,42914
973,959	8,32354
974,125	-112,37578
974,29	-79,07769
974,455	-10,40454
974,621	37,45529
974,786	-39,53792
974,951	-8,32362
975,117	33,29367
975,282	-35,37595
975,447	-29,13302
975,612	62,42457
975,778	-56,18602
975,943	-93,64544
976,108	10,40441
976,273	20,80869
976,438	91,5545
976,603	-12,48546
976,768	-14,56639
976,934	-83,23988
977,099	29,13203
977,264	97,7965
977,429	20,80869
977,594	-124,86291
977,759	97,7965
977,924	-79,07769
978,089	-81,15878
978,254	20,80869
978,418	35,37448
978,583	-114,45696
978,748	24,97037
978,913	-74,91552
979,078	41,61688
979,243	24,97037
979,408	91,5545
979,572	-93,64544
979,737	35,37448
979,902	-97,8077
980,067	43,69768
980,231	-14,56639
980,396	-89,4832
980,561	-87,40209
980,725	29,13203
980,89	0
981,055	-99,88884
981,219	16,647
981,384	-4,1618
981,548	-120,70051
981,713	-35,37595
981,877	-60,34809
982,042	2,08089
982,206	112,36099
982,371	-66,59124
982,535	114,44162
982,7	289,19657
982,864	-45,78092
983,029	-37,45693
983,193	-72,83444
983,357	-27,05206
983,522	89,47382
983,686	-24,9711
983,85	12,48528
984,015	-4,1618
984,179	10,40441
984,343	35,37448
984,507	6,24266
984,672	116,52223
984,836	-58,26705
985	-91,56432
985,164	-24,9711
985,328	93,63517
985,492	-35,37595
985,656	76,98966
985,821	-18,72826
985,985	-97,8077
986,149	16,647
986,313	-52,02396
986,477	-8,32362
986,641	14,56614
986,805	49,94002
986,969	-27,05206
987,133	-27,05206
987,296	-60,34809
987,46	139,4087
987,624	-18,72826
987,788	-52,02396
987,952	-6,24271
988,116	-60,34809
988,28	64,50531
988,443	22,88954
988,607	18,72785
988,771	-12,48546
988,935	56,18232
989,098	-64,51019
989,262	-2,0809
989,426	-91,56432
989,589	-24,9711
989,753	-85,32098
989,917	-70,75337
990,08	22,88954
990,244	52,02079
990,407	-64,51019
990,571	10,40441
990,734	-70,75337
990,898	-64,51019
991,061	-4,1618
991,225	12,48528
991,388	-29,13302
991,552	91,5545
991,715	-104,05113
991,878	-79,07769
992,042	49,94002
992,205	-66,59124
992,369	-143,59396
992,532	29,13203
992,695	-79,07769
992,858	22,88954
993,022	27,0512
993,185	-52,02396
993,348	-37,45693
993,511	-41,61891
993,675	-147,75647
993,838	-91,56432
994,001	-6,24271
994,164	0
994,327	-14,56639
994,49	-70,75337
994,653	-64,51019
994,816	-79,07769
994,979	18,72785
995,142	-24,9711
995,305	4,16178
995,468	-129,02533
995,631	-29,13302
995,794	-16,64732
995,957	-43,69991
996,12	24,97037
996,283	83,23176
996,446	120,68345
996,609	-39,53792
996,772	72,82823
996,934	-27,05206
997,097	-35,37595
997,26	-74,91552
997,423	41,61688
997,585	-35,37595
997,748	6,24266
997,911	-68,6723
998,074	43,69768
998,236	-110,29461
998,399	-22,89015
998,561	-64,51019
998,724	-2,0809
998,887	45,77846
999,049	-72,83444
999,212	33,29367
999,374	-8,32362
999,537	-43,69991
999,699	-99,88884
999,862	-54,10499
1000,024	22,88954
1000,187	64,50531
1000,349	-47,86193
1000,512	6,24266
1000,674	-24,9711
1000,836	18,72785
1000,999	10,40441
1001,161	-37,45693
1001,323	-47,86193
1001,486	-114,45696
1001,648	-66,59124
1001,81	4,16178
1001,972	-8,32362
1002,134	-104,05113
1002,297	12,48528
1002,459	52,02079
1002,621	-37,45693
1002,783	-31,21399
1002,945	-91,56432
1003,107	-16,64732
1003,269	62,42457
1003,432	49,94002
1003,594	-95,72657
1003,756	-31,21399
1003,918	-39,53792
1004,08	45,77846
1004,242	10,40441
1004,404	-29,13302
1004,565	0
1004,727	-33,29497
1004,889	-12,48546
1005,051	-70,75337
1005,213	33,29367
1005,375	27,0512
1005,537	47,85924
1005,698	66,58605
1005,86	-37,45693
1006,022	31,21285
1006,184	-12,48546
1006,345	-31,21399
1006,507	-2,0809
1006,669	-41,61891
1006,831	-89,4832
1006,992	-45,78092
1007,154	66,58605
1007,315	-64,51019
1007,477	22,88954
1007,639	37,45529
1007,8	-37,45693
1007,962	93,63517
1008,123	-8,32362
1008,285	-43,69991
1008,446	-54,10499
1008,608	-99,88884
1008,769	153,97251
1008,931	-14,56639
1009,092	-35,37595
1009,253	70,74751
1009,415	52,02079
1009,576	-54,10499
1009,737	0
1009,899	43,69768
1010,06	62,42457
1010,221	-49,94294
1010,382	4,16178
1010,544	-68,6723
1010,705	20,80869
1010,866	87,39314
1011,027	-60,34809
1011,188	-91,56432
1011,35	-6,24271
1011,511	-8,32362
1011,672	-33,29497
1011,833	14,56614
1011,994	110,28037
1012,155	-29,13302
1012,316	-76,9966
1012,477	-147,75647
1012,638	-14,56639
1012,799	4,16178
1012,96	54,10156
1013,121	-18,72826
1013,282	58,26308
1013,443	79,07036
1013,604	120,68345
1013,765	-4,1618
1013,925	76,98966
1014,086	-60,34809
1014,247	-74,91552
1014,408	95,71584
1014,569	-20,8092
1014,729	-8,32362
1014,89	35,37448
1015,051	-22,89015
1015,211	-29,13302
1015,372	33,29367
1015,533	72,82823
1015,693	8,32354
1015,854	29,13203
1016,015	62,42457
1016,175	-22,89015
1016,336	-2,0809
1016,496	-106,13229
1016,657	-33,29497
1016,817	66,58605
1016,978	29,13203
1017,138	47,85924
1017,299	33,29367
1017,459	68,66678
1017,62	-2,0809
1017,78	24,97037
1017,94	-6,24271
1018,101	-76,9966
1018,261	-104,05113
1018,421	2,08089
1018,582	18,72785
1018,742	-83,23988
1018,902	-135,269
1019,062	-8,32362
1019,223	-99,88884
1019,383	-58,26705
1019,543	-118,61932
1019,703	14,56614
1019,863	-93,64544
1020,023	35,37448
1020,184	31,21285
1020,344	18,72785
1020,504	-114,45696
1020,664	-56,18602
1020,824	-54,10499
1020,984	-72,83444
1021,144	-4,1618
1021,304	-112,37578
1021,464	-45,78092
1021,624	-112,37578
1021,784	49,94002
1021,943	-12,48546
1022,103	-99,88884
1022,263	16,647
1022,423	-58,26705
1022,583	-43,69991
1022,743	-54,10499
1022,902	27,0512
1023,062	-106,13229
1023,222	-14,56639
1023,382	-39,53792
1023,541	91,5545
1023,701	37,45529
1023,861	-24,9711
1024,02	-20,8092
1024,18	24,97037
1024,34	-81,15878
1024,499	20,80869
1024,659	60,34383
1024,818	-79,07769
1024,978	-14,56639
1025,137	45,77846
1025,297	24,97037
1025,456	-29,13302
1025,616	99,87716
1025,775	-95,72657
1025,935	33,29367
1026,094	35,37448
1026,254	-74,91552
1026,413	39,53609
1026,572	-8,32362
1026,732	-47,86193
1026,891	-54,10499
1027,05	-10,40454
1027,21	18,72785
1027,369	-10,40454
1027,528	0
1027,687	83,23176
1027,846	-27,05206
1028,006	-54,10499
1028,165	-10,40454
1028,324	-89,4832
1028,483	52,02079
1028,642	-39,53792
1028,801	-49,94294
1028,96	35,37448
1029,119	-141,51271
1029,278	-49,94294
1029,437	-66,59124
1029,596	-76,9966
1029,755	-74,91552
1029,914	-14,56639
1030,073	-10,40454
1030,232	-68,6723
1030,391	-52,02396
1030,55	27,0512
1030,709	62,42457
1030,868	-118,61932
1031,026	35,37448
1031,185	-18,72826
1031,344	-29,13302
1031,503	-74,91552
1031,662	-47,86193
1031,82	-108,21345
1031,979	18,72785
1032,138	99,87716
1032,296	-52,02396
1032,455	-29,13302
1032,614	6,24266
1032,772	54,10156
1032,931	-93,64544
1033,089	35,37448
1033,248	-4,1618
1033,407	-93,64544
1033,565	-12,48546
1033,724	-56,18602
1033,882	8,32354
1034,04	41,61688
1034,199	56,18232
1034,357	-87,40209
1034,516	-79,07769
1034,674	-2,0809
1034,832	22,88954
1034,991	-10,40454
1035,149	0
1035,307	-58,26705
1035,466	-10,40454
1035,624	-35,37595
1035,782	-97,8077
1035,941	-14,56639
1036,099	18,72785
1036,257	6,24266
1036,415	31,21285
1036,573	-49,94294
1036,731	45,77846
1036,889	-4,1618
1037,048	-47,86193
1037,206	-6,24271
1037,364	-81,15878
1037,522	-8,32362
1037,68	-83,23988
1037,838	8,32354
1037,996	8,32354
1038,154	8,32354
