
345,274	-141,51271
345,493	-141,51271
345,712	-141,51271
345,932	-233,09267
346,151	-62,42914
346,37	-39,53792
346,59	-6,24271
346,809	-101,96998
347,028	-6,24271
347,247	62,42457
347,467	10,40441
347,686	-2,0809
347,905	-20,8092
348,124	43,69768
348,343	-8,32362
348,563	131,08642
348,782	33,29367
349,001	-12,48546
349,22	72,82823
349,439	6,24266
349,658	16,647
349,877	47,85924
350,096	-95,72657
350,315	20,80869
350,534	87,39314
350,753	101,95781
350,972	-4,1618
351,191	41,61688
351,41	124,84466
351,629	83,23176
351,848	68,66678
352,067	87,39314
352,286	-10,40454
352,505	-35,37595
352,724	10,40441
352,943	-22,89015
353,162	-4,1618
353,381	-74,91552
353,599	24,97037
353,818	-2,0809
354,037	43,69768
354,256	70,74751
354,475	-10,40454
354,693	27,0512
354,912	74,90895
355,131	72,82823
355,35	41,61688
355,568	29,13203
355,787	10,40441
356,006	14,56614
356,224	-33,29497
356,443	97,7965
356,661	-0
356,88	97,7965
357,099	-79,07769
357,317	47,85924
357,536	79,07036
357,754	-10,40454
357,973	83,23176
358,191	8,32354
358,41	-16,64732
358,628	66,58605
358,847	41,61688
359,065	-10,40454
359,284	-6,24271
359,502	-47,86193
359,721	22,88954
359,939	43,69768
360,157	-16,64732
360,376	56,18232
360,594	-18,72826
360,813	20,80869
361,031	6,24266
361,249	22,88954
361,467	29,13203
361,686	4,16178
361,904	-8,32362
362,122	-4,1618
362,341	58,26308
362,559	74,90895
362,777	20,80869
362,995	47,85924
363,213	-45,78092
363,431	18,72785
363,65	68,66678
363,868	-29,13302
364,086	49,94002
364,304	-24,9711
364,522	27,0512
364,74	68,66678
364,958	16,647
365,176	60,34383
365,394	122,76406
365,612	6,24266
365,83	60,34383
366,048	-64,51019
366,266	126,92525
366,484	-0
366,702	-29,13302
366,92	10,40441
367,138	-43,69991
367,356	27,0512
367,574	27,0512
367,792	45,77846
368,01	-101,96998
368,227	87,39314
368,445	-18,72826
368,663	35,37448
368,881	24,97037
369,099	-41,61891
369,316	45,77846
369,534	-24,9711
369,752	27,0512
369,97	-14,56639
370,187	31,21285
370,405	-54,10499
370,623	43,69768
370,84	-18,72826
371,058	-60,34809
371,276	33,29367
371,493	104,03846
371,711	27,0512
371,928	-20,8092
372,146	45,77846
372,364	85,31245
372,581	133,167
372,799	56,18232
373,016	70,74751
373,234	66,58605
373,451	22,88954
373,669	-35,37595
373,886	54,10156
374,103	29,13203
374,321	-6,24271
374,538	-58,26705
374,756	87,39314
374,973	20,80869
375,19	37,45529
375,408	-14,56639
375,625	10,40441
375,842	-33,29497
376,06	-0
376,277	158,13355
376,494	31,21285
376,712	-2,0809
376,929	-22,89015
377,146	101,95781
377,363	81,15107
377,581	41,61688
377,798	104,03846
378,015	-31,21399
378,232	-14,56639
378,449	58,26308
378,666	22,88954
378,883	-74,91552
379,101	14,56614
379,318	-60,34809
379,535	10,40441
379,752	45,77846
379,969	39,53609
380,186	4,16178
380,403	29,13203
380,62	22,88954
380,837	33,29367
381,054	116,52223
381,271	104,03846
381,488	-12,48546
381,705	-0
381,921	-27,05206
382,138	43,69768
382,355	16,647
382,572	-12,48546
382,789	64,50531
383,006	74,90895
383,223	56,18232
383,439	14,56614
383,656	-24,9711
383,873	20,80869
384,09	-31,21399
384,306	-24,9711
384,523	8,32354
384,74	93,63517
384,957	20,80869
385,173	2,08089
385,39	-14,56639
385,607	22,88954
385,823	47,85924
386,04	-33,29497
386,256	47,85924
386,473	68,66678
386,69	8,32354
386,906	79,07036
387,123	43,69768
387,339	8,32354
387,556	-10,40454
387,772	60,34383
387,989	49,94002
388,205	-56,18602
388,422	-39,53792
388,638	-49,94294
388,855	114,44162
389,071	35,37448
389,287	39,53609
389,504	35,37448
389,72	-18,72826
389,937	24,97037
390,153	-6,24271
390,369	99,87716
390,585	72,82823
390,802	33,29367
391,018	-22,89015
391,234	-85,32098
391,451	-14,56639
391,667	-16,64732
391,883	76,98966
392,099	43,69768
392,315	58,26308
392,532	-64,51019
392,748	68,66678
392,964	-52,02396
393,18	85,31245
393,396	-56,18602
393,612	-2,0809
393,828	10,40441
394,044	-70,75337
394,26	81,15107
394,477	-60,34809
394,693	95,71584
394,909	10,40441
395,125	54,10156
395,341	137,32814
395,557	41,61688
395,772	-74,91552
395,988	201,82334
396,204	-0
396,42	166,45558
396,636	6,24266
396,852	60,34383
397,068	76,98966
397,284	-56,18602
397,5	76,98966
397,715	104,03846
397,931	-39,53792
398,147	93,63517
398,363	-6,24271
398,578	118,60285
398,794	-45,78092
399,01	93,63517
399,226	156,05303
399,441	10,40441
399,657	-52,02396
399,873	-66,59124
400,088	60,34383
400,304	49,94002
400,52	64,50531
400,735	12,48528
400,951	68,66678
401,166	60,34383
401,382	-43,69991
401,597	91,5545
401,813	91,5545
402,029	-60,34809
402,244	-47,86193
402,46	37,45529
402,675	10,40441
402,89	93,63517
403,106	70,74751
403,321	52,02079
403,537	37,45529
403,752	-56,18602
403,968	-85,32098
404,183	62,42457
404,398	6,24266
404,614	-20,8092
404,829	-6,24271
405,044	37,45529
405,26	54,10156
405,475	70,74751
405,69	8,32354
405,905	-60,34809
406,121	58,26308
406,336	-41,61891
406,551	8,32354
406,766	-22,89015
406,981	91,5545
407,196	6,24266
407,412	-18,72826
407,627	-64,51019
407,842	101,95781
408,057	135,24757
408,272	37,45529
408,487	112,36099
408,702	114,44162
408,917	52,02079
409,132	89,47382
409,347	-24,9711
409,562	104,03846
409,777	-41,61891
409,992	110,28037
410,207	-45,78092
410,422	72,82823
410,637	49,94002
410,852	-52,02396
411,067	68,66678
411,282	-54,10499
411,496	-66,59124
411,711	-39,53792
411,926	145,65036
412,141	81,15107
412,356	58,26308
412,571	81,15107
412,785	-10,40454
413	-29,13302
413,215	4,16178
413,429	114,44162
413,644	45,77846
413,859	-33,29497
414,074	20,80869
414,288	95,71584
414,503	-29,13302
414,718	91,5545
414,932	52,02079
415,147	54,10156
415,361	49,94002
415,576	91,5545
415,79	6,24266
416,005	31,21285
416,22	95,71584
416,434	143,56981
416,649	2,08089
416,863	12,48528
417,077	16,647
417,292	99,87716
417,506	176,85801
417,721	72,82823
417,935	116,52223
418,15	52,02079
418,364	85,31245
418,578	-2,0809
418,793	66,58605
419,007	18,72785
419,221	-43,69991
419,436	22,88954
419,65	37,45529
419,864	60,34383
420,078	85,31245
420,293	74,90895
420,507	16,647
420,721	95,71584
420,935	-101,96998
421,149	6,24266
421,364	-101,96998
421,578	10,40441
421,792	-8,32362
422,006	99,87716
422,22	-4,1618
422,434	29,13203
422,648	27,0512
422,862	176,85801
423,076	97,7965
423,29	-29,13302
423,504	41,61688
423,718	60,34383
423,932	60,34383
424,146	37,45529
424,36	45,77846
424,574	47,85924
424,788	-2,0809
425,002	6,24266
425,216	74,90895
425,43	-4,1618
425,644	37,45529
425,858	-79,07769
426,071	58,26308
426,285	6,24266
426,499	54,10156
426,713	95,71584
426,927	129,00584
427,14	47,85924
427,354	191,42121
427,568	-20,8092
427,782	108,19974
427,995	54,10156
428,209	-8,32362
428,423	122,76406
428,636	-37,45693
428,85	-27,05206
429,063	12,48528
429,277	39,53609
429,491	-8,32362
429,704	24,97037
429,918	4,16178
430,131	-16,64732
430,345	41,61688
430,558	-18,72826
430,772	47,85924
430,985	83,23176
431,199	10,40441
431,412	114,44162
431,626	-24,9711
431,839	24,97037
432,053	-10,40454
432,266	43,69768
432,479	87,39314
432,693	-52,02396
432,906	56,18232
433,119	-12,48546
433,333	68,66678
433,546	120,68345
433,759	24,97037
433,973	49,94002
434,186	20,80869
434,399	72,82823
434,612	49,94002
434,825	68,66678
435,039	2,08089
435,252	-16,64732
435,465	145,65036
435,678	-81,15878
435,891	6,24266
436,104	76,98966
436,318	-14,56639
436,531	-0
436,744	-14,56639
436,957	-66,59124
437,17	6,24266
437,383	76,98966
437,596	-27,05206
437,809	2,08089
438,022	64,50531
438,235	-58,26705
438,448	81,15107
438,661	91,5545
438,874	76,98966
439,086	12,48528
439,299	85,31245
439,512	212,22536
439,725	122,76406
439,938	93,63517
440,151	-37,45693
440,364	27,0512
440,576	62,42457
440,789	29,13203
441,002	35,37448
441,215	-20,8092
441,427	-56,18602
441,64	83,23176
441,853	129,00584
442,066	35,37448
442,278	120,68345
442,491	106,1191
442,704	47,85924
442,916	20,80869
443,129	139,4087
443,341	195,58207
443,554	24,97037
443,767	-8,32362
443,979	83,23176
444,192	112,36099
444,404	41,61688
444,617	43,69768
444,829	68,66678
445,042	64,50531
445,254	-4,1618
445,467	35,37448
445,679	52,02079
445,892	18,72785
446,104	70,74751
446,316	33,29367
446,529	18,72785
446,741	-14,56639
446,953	47,85924
447,166	41,61688
447,378	106,1191
447,59	-6,24271
447,803	35,37448
448,015	66,58605
448,227	14,56614
448,439	-4,1618
448,652	-10,40454
448,864	56,18232
449,076	110,28037
449,288	-41,61891
449,5	-29,13302
449,712	29,13203
449,925	79,07036
450,137	52,02079
450,349	-52,02396
450,561	120,68345
450,773	-62,42914
450,985	41,61688
451,197	68,66678
451,409	-37,45693
451,621	112,36099
451,833	83,23176
452,045	64,50531
452,257	6,24266
452,469	41,61688
452,681	-29,13302
452,893	-52,02396
453,105	-4,1618
453,317	62,42457
453,529	43,69768
453,74	20,80869
453,952	-45,78092
454,164	158,13355
454,376	37,45529
454,588	72,82823
454,799	112,36099
455,011	33,29367
455,223	-31,21399
455,435	120,68345
455,646	45,77846
455,858	12,48528
456,07	10,40441
456,281	-27,05206
456,493	83,23176
456,705	91,5545
456,916	-99,88884
457,128	27,0512
457,34	-0
457,551	-6,24271
457,763	31,21285
457,974	-6,24271
458,186	131,08642
458,397	2,08089
458,609	2,08089
458,82	58,26308
459,032	43,69768
459,243	141,48926
459,455	64,50531
459,666	-76,9966
459,878	56,18232
460,089	76,98966
460,3	6,24266
460,512	70,74751
460,723	162,29458
460,934	74,90895
461,146	147,73091
461,357	208,06457
461,568	37,45529
461,78	116,52223
461,991	10,40441
462,202	33,29367
462,413	56,18232
462,625	83,23176
462,836	22,88954
463,047	-85,32098
463,258	-47,86193
463,469	4,16178
463,68	-6,24271
463,891	58,26308
464,103	-4,1618
464,314	22,88954
464,525	12,48528
464,736	64,50531
464,947	27,0512
465,158	-16,64732
465,369	-20,8092
465,58	20,80869
465,791	41,61688
466,002	47,85924
466,213	-2,0809
466,424	12,48528
466,635	58,26308
466,846	39,53609
467,056	-29,13302
467,267	8,32354
467,478	20,80869
467,689	10,40441
467,9	-16,64732
468,111	-83,23988
468,322	-18,72826
468,532	-8,32362
468,743	76,98966
468,954	31,21285
469,165	-68,6723
469,375	-0
469,586	72,82823
469,797	89,47382
470,007	41,61688
470,218	-20,8092
470,429	-22,89015
470,639	174,77754
470,85	-0
471,061	-2,0809
471,271	-45,78092
471,482	18,72785
471,692	35,37448
471,903	35,37448
472,113	49,94002
472,324	29,13203
472,534	-39,53792
472,745	31,21285
472,955	89,47382
473,166	27,0512
473,376	58,26308
473,587	2,08089
473,797	70,74751
474,007	91,5545
474,218	-47,86193
474,428	76,98966
474,638	85,31245
474,849	16,647
475,059	-43,69991
475,269	35,37448
475,48	-27,05206
475,69	6,24266
475,9	-10,40454
476,11	58,26308
476,321	39,53609
476,531	70,74751
476,741	41,61688
476,951	79,07036
477,161	101,95781
477,371	12,48528
477,581	-0
477,792	-81,15878
478,002	112,36099
478,212	122,76406
478,422	-70,75337
478,632	52,02079
478,842	-81,15878
479,052	-29,13302
479,262	183,09941
479,472	74,90895
479,682	56,18232
479,892	10,40441
480,102	45,77846
480,312	68,66678
480,522	-2,0809
480,731	112,36099
480,941	76,98966
481,151	-74,91552
481,361	27,0512
481,571	-58,26705
481,781	62,42457
481,991	106,1191
482,2	106,1191
482,41	-31,21399
482,62	118,60285
482,83	170,61657
483,039	-4,1618
483,249	70,74751
483,459	56,18232
483,668	76,98966
483,878	-83,23988
484,088	49,94002
484,297	-0
484,507	66,58605
484,716	-10,40454
484,926	97,7965
485,136	56,18232
485,345	68,66678
485,555	-14,56639
485,764	-4,1618
485,974	-20,8092
486,183	108,19974
486,393	6,24266
486,602	72,82823
486,812	-4,1618
487,021	29,13203
487,23	31,21285
487,44	-83,23988
487,649	112,36099
487,859	145,65036
488,068	-49,94294
488,277	70,74751
488,487	-18,72826
488,696	-20,8092
488,905	16,647
489,115	-6,24271
489,324	-12,48546
489,533	29,13203
489,742	120,68345
489,951	47,85924
490,161	-18,72826
490,37	-83,23988
490,579	-45,78092
490,788	91,5545
490,997	-24,9711
491,206	74,90895
491,415	56,18232
491,625	74,90895
491,834	10,40441
492,043	-2,0809
492,252	52,02079
492,461	-33,29497
492,67	43,69768
492,879	85,31245
493,088	-74,91552
493,297	189,34076
493,506	39,53609
493,715	131,08642
493,924	52,02079
494,132	31,21285
494,341	104,03846
494,55	108,19974
494,759	8,32354
494,968	22,88954
495,177	41,61688
495,386	79,07036
495,594	85,31245
495,803	72,82823
496,012	-62,42914
496,221	68,66678
496,429	49,94002
496,638	10,40441
496,847	16,647
497,055	49,94002
497,264	56,18232
497,473	68,66678
497,681	18,72785
497,89	139,4087
498,099	39,53609
498,307	-79,07769
498,516	114,44162
498,724	10,40441
498,933	-24,9711
499,141	-8,32362
499,35	112,36099
499,558	183,09941
499,767	68,66678
499,975	89,47382
500,184	64,50531
500,392	20,80869
500,601	43,69768
500,809	35,37448
501,018	104,03846
501,226	29,13203
501,434	24,97037
501,643	43,69768
501,851	106,1191
502,059	-16,64732
502,268	99,87716
502,476	18,72785
502,684	64,50531
502,892	104,03846
503,101	-6,24271
503,309	64,50531
503,517	14,56614
503,725	-12,48546
503,933	-45,78092
504,141	-72,83444
504,35	49,94002
504,558	49,94002
504,766	12,48528
504,974	104,03846
505,182	64,50531
505,39	72,82823
505,598	35,37448
505,806	29,13203
506,014	49,94002
506,222	70,74751
506,43	-8,32362
506,638	160,21407
506,846	-8,32362
507,054	31,21285
507,262	45,77846
507,47	97,7965
507,678	2,08089
507,886	76,98966
508,094	33,29367
508,301	170,61657
508,509	-0
508,717	22,88954
508,925	72,82823
509,133	-43,69991
509,34	20,80869
509,548	89,47382
509,756	95,71584
509,964	99,87716
510,171	129,00584
510,379	66,58605
510,587	20,80869
510,794	-4,1618
511,002	-43,69991
511,21	24,97037
511,417	22,88954
511,625	95,71584
511,832	95,71584
512,04	-29,13302
512,247	56,18232
512,455	-29,13302
512,663	129,00584
512,87	129,00584
513,078	108,19974
513,285	62,42457
513,492	24,97037
513,7	4,16178
513,907	49,94002
514,115	-56,18602
514,322	-8,32362
514,529	56,18232
514,737	24,97037
514,944	14,56614
515,152	72,82823
515,359	52,02079
515,566	79,07036
515,773	-60,34809
515,981	-0
516,188	74,90895
516,395	106,1191
516,602	-0
516,81	8,32354
517,017	-72,83444
517,224	35,37448
517,431	16,647
517,638	114,44162
517,845	-31,21399
518,053	64,50531
518,26	-43,69991
518,467	-43,69991
518,674	33,29367
518,881	64,50531
519,088	37,45529
519,295	41,61688
519,502	-12,48546
519,709	-14,56639
519,916	-24,9711
520,123	24,97037
520,33	2,08089
520,537	108,19974
520,744	-27,05206
520,95	118,60285
521,157	10,40441
521,364	68,66678
521,571	-27,05206
521,778	58,26308
521,985	18,72785
522,191	-10,40454
522,398	2,08089
522,605	20,80869
522,812	-39,53792
523,019	-10,40454
523,225	-70,75337
523,432	85,31245
523,639	24,97037
523,845	35,37448
524,052	-49,94294
524,259	54,10156
524,465	-56,18602
524,672	-27,05206
524,878	-14,56639
525,085	-14,56639
525,292	-29,13302
525,498	68,66678
525,705	174,77754
525,911	39,53609
526,118	114,44162
526,324	66,58605
526,531	118,60285
526,737	52,02079
526,944	-0
527,15	79,07036
527,356	31,21285
527,563	-2,0809
527,769	27,0512
527,975	27,0512
528,182	104,03846
528,388	79,07036
528,594	-16,64732
528,801	22,88954
529,007	-56,18602
529,213	-37,45693
529,42	12,48528
529,626	10,40441
529,832	41,61688
530,038	-14,56639
530,244	-83,23988
530,451	-0
530,657	-93,64544
530,863	35,37448
531,069	56,18232
531,275	-43,69991
531,481	43,69768
531,687	37,45529
531,893	-18,72826
532,099	45,77846
532,305	-54,10499
532,511	-68,6723
532,717	108,19974
532,923	62,42457
533,129	33,29367
533,335	-49,94294
533,541	95,71584
533,747	-10,40454
533,953	8,32354
534,159	52,02079
534,365	47,85924
534,571	129,00584
534,777	66,58605
534,982	76,98966
535,188	22,88954
535,394	116,52223
535,6	79,07036
535,806	143,56981
536,011	27,0512
536,217	124,84466
536,423	101,95781
536,628	29,13203
536,834	-72,83444
537,04	35,37448
537,245	-27,05206
537,451	35,37448
537,657	20,80869
537,862	52,02079
538,068	-6,24271
538,273	4,16178
538,479	101,95781
538,685	-4,1618
538,89	18,72785
539,096	64,50531
539,301	-0
539,507	-35,37595
539,712	49,94002
539,917	10,40441
540,123	104,03846
540,328	39,53609
540,534	24,97037
540,739	106,1191
540,944	85,31245
541,15	70,74751
541,355	91,5545
541,56	-6,24271
541,766	66,58605
541,971	27,0512
542,176	-45,78092
542,382	97,7965
542,587	60,34383
542,792	35,37448
542,997	52,02079
543,202	29,13203
543,408	-12,48546
543,613	72,82823
543,818	64,50531
544,023	-135,269
544,228	20,80869
544,433	74,90895
544,638	49,94002
544,843	-62,42914
545,049	24,97037
545,254	16,647
545,459	22,88954
545,664	14,56614
545,869	45,77846
546,074	60,34383
546,279	47,85924
546,483	33,29367
546,688	20,80869
546,893	12,48528
547,098	160,21407
547,303	4,16178
547,508	-2,0809
547,713	-12,48546
547,918	-4,1618
548,122	-18,72826
548,327	24,97037
548,532	33,29367
548,737	16,647
548,942	145,65036
549,146	95,71584
549,351	-72,83444
549,556	-6,24271
549,76	2,08089
549,965	16,647
550,17	-20,8092
550,374	14,56614
550,579	-18,72826
550,784	43,69768
550,988	-60,34809
551,193	29,13203
551,397	-24,9711
551,602	33,29367
551,806	60,34383
552,011	74,90895
552,215	-12,48546
552,42	60,34383
552,624	52,02079
552,829	31,21285
553,033	31,21285
553,238	29,13203
553,442	-68,6723
553,646	6,24266
553,851	-49,94294
554,055	112,36099
554,26	37,45529
554,464	58,26308
554,668	62,42457
554,872	139,4087
555,077	37,45529
555,281	79,07036
555,485	43,69768
555,69	124,84466
555,894	108,19974
556,098	187,26032
556,302	129,00584
556,506	85,31245
556,71	147,73091
556,915	193,50164
557,119	166,45558
557,323	158,13355
557,527	322,47941
557,731	320,39927
557,935	318,31912
558,139	251,75193
558,343	205,98416
558,547	416,081
558,751	424,40069
558,955	309,99848
559,159	326,63968
559,363	432,72031
559,567	355,76105
559,771	393,20148
559,975	355,76105
560,179	322,47941
560,382	455,59888
560,586	511,75306
560,79	330,79993
560,994	341,20048
561,198	407,76124
561,402	370,32139
561,605	324,55955
561,809	403,60133
562,013	422,32078
562,217	438,95998
562,42	391,12149
562,624	505,51387
562,828	366,16132
563,031	357,84111
563,235	366,16132
563,439	364,08128
563,642	465,99805
563,846	193,50164
564,049	389,0415
564,253	443,11973
564,456	445,1996
564,66	393,20148
564,863	339,12038
565,067	332,88005
565,27	401,52137
565,474	312,07865
565,677	463,91823
565,881	441,03986
566,084	359,92117
566,288	405,68129
566,491	316,23897
566,694	411,92113
566,898	414,00107
567,101	476,39711
567,304	370,32139
567,508	368,24136
567,711	420,24086
567,914	378,64149
568,118	484,71627
568,321	549,18736
568,524	443,11973
568,727	565,82436
568,93	395,28146
569,134	347,44075
569,337	463,91823
569,54	438,95998
569,743	443,11973
569,946	441,03986
570,149	453,51904
570,352	366,16132
570,555	312,07865
570,758	443,11973
570,962	393,20148
571,165	411,92113
571,368	434,80021
571,571	499,27464
571,774	301,67777
571,976	563,74475
572,179	461,8384
572,382	409,84119
572,585	409,84119
572,788	447,27947
572,991	495,11513
573,194	399,4414
573,397	305,83814
573,6	372,40143
573,802	470,15769
574,005	499,27464
574,208	530,47039
574,411	495,11513
574,613	499,27464
574,816	557,5059
575,019	488,87583
575,222	528,3907
575,424	407,76124
575,627	493,03536
575,83	493,03536
576,032	490,9556
576,235	470,15769
576,438	547,10771
576,64	422,32078
576,843	617,81318
577,045	480,5567
577,248	441,03986
577,45	528,3907
577,653	507,5936
577,855	526,31101
578,058	474,31731
578,26	597,01798
578,463	569,98357
578,665	559,58552
578,868	567,90397
579,07	509,67333
579,272	520,07192
579,475	557,5059
579,677	563,74475
579,879	692,67229
580,082	613,65418
580,284	503,43413
580,486	576,22235
580,689	470,15769
580,891	680,19616
581,093	711,38619
581,295	678,11679
581,498	567,90397
581,7	694,75163
581,902	669,79927
582,104	752,97139
582,306	665,64048
582,508	671,87865
582,71	728,02047
582,913	694,75163
583,115	682,27552
583,317	804,95052
583,519	802,8714
583,721	736,33752
583,923	823,66236
584,125	771,68418
584,327	902,66418
584,529	861,08502
584,731	840,29482
584,933	1016,9984
585,135	856,92701
585,336	823,66236
585,538	944,24169
585,74	1100,14289
585,942	1054,41421
586,144	1133,3989
586,346	1150,02653
586,547	1110,5355
586,749	1179,12427
586,951	1114,69252
587,153	1125,085
587,355	1229,00433
587,556	1426,42448
587,758	1389,02119
587,96	1332,91397
588,161	1511,61631
588,363	1551,09334
588,565	1721,45265
588,766	1540,70477
588,968	1702,75588
589,17	1792,0823
589,371	1933,3292
589,573	1785,85044
589,774	2006,02344
589,976	2041,33053
590,177	2195,00849
590,379	2232,38676
590,58	2307,13996
590,782	2496,07977
590,983	2568,74147
591,185	2674,61256
591,386	2884,25313
591,587	3079,33358
591,789	3110,46071
591,99	3313,80619
592,192	3456,95876
592,393	3728,69715
592,594	3846,91633
592,796	3994,15629
592,997	4079,17429
593,198	4417,11472
593,399	4510,39463
593,601	4715,58481
593,802	4920,73921
594,003	5258,43877
594,204	5393,07585
594,405	5622,9562
594,607	5575,32736
594,808	6179,84585
595,009	6459,21038
595,21	6440,58855
595,411	6728,15207
595,612	6945,31817
595,813	7094,20245
596,014	7356,75768
596,215	7489,03933
596,416	7751,47556
596,617	7844,44525
596,818	8117,09615
597,019	8197,63468
597,22	8338,04151
597,421	8437,13729
597,622	8560,98946
597,823	8734,34933
598,024	8792,12727
598,225	8903,54377
598,426	9151,07693
598,627	9299,5572
598,827	9278,93674
599,028	9163,45143
599,229	9301,61922
599,43	9285,12294
599,63	9338,73449
599,831	9406,77423
600,032	9406,77423
600,233	9186,13747
600,433	9433,57602
600,634	9204,69826
600,835	9124,26481
601,035	8946,86798
601,236	8790,06385
601,437	9037,63441
601,637	8887,03865
601,838	8523,83587
602,038	8591,94943
602,239	8385,52646
602,439	8377,26841
602,64	8100,57444
602,841	8059,26869
603,041	7836,18169
603,241	7910,55072
603,442	7563,43889
603,642	7499,37299
603,843	7346,42233
604,043	7234,79284
604,244	7193,44502
604,444	7135,55486
604,644	6926,70593
604,845	6680,57561
605,045	6711,604
605,245	6537,83192
605,446	6442,65766
605,646	6419,89721
605,846	6198,47261
606,046	6291,60116
606,247	5976,99894
606,447	5714,06632
606,647	5935,59665
606,847	5620,88543
607,047	5469,70806
607,248	5569,11475
607,448	5362,00722
607,648	5150,71735
607,848	5183,86351
608,048	5111,35502
608,248	5040,91376
608,448	5011,90726
608,648	4893,80181
608,848	4848,21401
609,048	4622,32094
609,248	4728,01944
609,448	4497,95773
609,648	4512,46743
609,848	4410,8958
610,048	4286,51076
610,248	4081,24782
610,448	4137,23201
610,648	3977,56674
610,847	4093,68897
611,047	3890,46798
611,247	3699,65917
611,447	3703,80749
611,647	3726,62303
611,846	3494,30028
612,046	3421,69076
612,246	3413,39227
612,446	3382,27245
612,645	3224,58712
612,845	3145,73722
613,045	3212,13746
613,244	3303,4322
613,444	3160,26257
613,644	3176,86276
613,843	2859,34713
614,043	2921,61124
614,243	2792,92876
614,442	2741,03703
614,642	2819,91163
614,841	2728,5827
615,041	2830,28951
615,24	2533,44916
615,44	2610,26058
615,639	2616,48834
615,839	2454,55695
616,038	2340,36219
616,237	2332,05672
616,437	2379,81245
616,636	2327,90396
616,836	2226,15713
617,035	2356,97297
617,234	2244,84594
617,434	2217,8509
617,633	2201,23828
617,832	2224,08058
618,032	2290,52853
618,231	2176,31894
618,43	2049,63793
618,629	2012,25418
618,828	2116,09515
619,028	2041,33053
619,227	2020,56178
619,426	2053,79161
619,625	2101,55794
619,824	2037,17681
620,023	1937,48327
620,222	1927,09806
620,422	1844,01321
620,621	1979,02323
620,82	1740,14914
621,019	1877,24783
621,218	1887,63347
621,417	1767,15466
621,616	1798,31412
621,815	1773,38662
622,014	1787,92773
622,213	1719,37525
622,411	1721,45265
622,61	1765,07734
622,809	1773,38662
623,008	1727,68485
623,207	1945,79138
623,406	1864,78496
623,605	1740,14914
623,803	1644,58624
624,002	1630,04339
624,201	1715,22043
624,4	1657,0514
624,598	1648,74131
624,797	1858,55347
624,996	1681,98133
625,195	1611,34517
625,393	1573,94784
625,592	1632,12095
625,791	1600,95714
625,989	1686,13627
626,188	1638,35361
626,386	1528,23838
626,585	1619,65553
626,784	1488,76058
626,982	1513,69408
627,181	1486,68277
627,379	1634,19851
627,578	1538,62705
627,776	1449,28144
627,975	1586,41375
628,173	1567,71484
628,371	1438,89197
628,57	1424,34655
628,768	1519,92738
628,967	1563,55949
629,165	1542,78249
629,363	1474,21579
629,562	1528,23838
629,76	1359,9289
629,958	1590,56902
630,157	1463,82655
630,355	1511,61631
630,553	1497,07181
630,751	1497,07181
630,95	1465,9044
631,148	1449,28144
631,346	1501,2274
631,544	1399,41112
631,742	1411,8789
631,94	1532,39386
632,139	1362,00695
632,337	1555,24873
632,535	1445,12566
632,733	1571,87018
632,931	1594,72428
633,129	1438,89197
633,327	1490,8384
633,525	1526,16063
633,723	1578,10316
633,921	1559,40412
634,119	1482,52712
634,317	1515,77185
634,515	1625,88825
634,713	1654,97389
634,91	1571,87018
635,108	1648,74131
635,306	1785,85044
635,504	1746,38124
635,702	1711,06559
635,9	1773,38662
636,097	1835,70442
636,295	1758,84534
636,493	1835,70442
636,691	1817,00942
636,888	1827,39556
637,086	1991,48494
637,284	1933,3292
637,482	2091,17411
637,679	2195,00849
637,877	1945,79138
638,075	2066,25257
638,272	2049,63793
638,47	2232,38676
638,667	2109,86494
638,865	2246,92245
639,062	2427,56638
639,26	2410,95652
639,457	2257,30499
639,655	2373,58354
639,852	2379,81245
640,05	2359,04931
640,247	2674,61256
640,445	2614,41242
640,642	2618,56425
640,84	2633,09552
641,037	2660,08175
641,234	2651,77836
641,432	2693,29479
641,629	2628,94375
641,826	2826,13837
642,024	2658,00591
642,221	2790,85313
642,418	2695,37057
642,615	2741,03703
642,813	2907,08322
643,01	2884,25313
643,207	3095,93481
643,404	2931,98831
643,602	3037,82957
643,799	2971,42038
643,996	3023,30285
644,193	2950,66681
644,39	3058,58174
644,587	2942,36528
644,784	3112,53583
644,981	3012,92652
645,178	3185,16277
645,375	3247,41119
645,572	3243,26139
645,769	3286,83363
645,966	3340,77818
646,163	3334,55393
646,36	3452,80963
646,557	3280,60912
646,754	3581,42627
646,951	3450,73506
647,148	3550,31053
647,345	3573,12881
647,542	3490,15128
647,738	3517,11957
647,935	3579,35191
648,132	3517,11957
648,329	3624,98704
648,526	3670,62053
648,722	3629,1356
648,919	3710,02995
649,116	3637,4327
649,312	3736,99359
649,509	3739,0677
649,706	3722,47478
649,902	3627,06132
650,099	3784,69709
650,296	3743,21589
650,492	3782,62306
650,689	3790,91915
650,885	3768,10477
651,082	3780,54903
651,278	3759,80853
651,475	3811,65914
651,671	3757,73446
651,868	3714,17824
652,064	3724,54891
652,261	3809,58516
652,457	3838,62061
652,654	3683,06574
652,85	3674,76895
653,047	3803,36318
653,243	3568,98006
653,439	3674,76895
653,636	3500,52376
653,832	3670,62053
654,028	3602,16968
654,224	3465,25697
654,421	3687,21412
654,617	3330,40441
654,813	3469,40605
655,009	3386,4218
655,206	3550,31053
655,402	3315,88098
655,598	3253,63587
655,794	3349,07714
655,99	3290,9833
656,186	3247,41119
656,383	3214,21241
656,579	3154,03744
656,775	3110,46071
656,971	3102,16022
657,167	3162,3376
657,363	3170,63771
657,559	3021,22759
657,755	2969,34504
657,951	3006,70068
658,147	2992,17362
658,343	2888,40409
658,539	2909,15866
658,735	3002,55011
658,93	2817,83605
659,126	2807,45807
659,322	2817,83605
659,518	2699,52214
659,714	2699,52214
659,91	2770,09665
660,105	2676,68838
660,301	2637,24729
660,497	2560,43748
660,693	2572,89344
660,888	2475,31853
661,084	2682,91581
661,28	2467,01394
661,476	2545,90538
661,671	2464,93778
661,867	2431,71882
662,062	2298,83427
662,258	2244,84594
662,454	2251,07548
662,649	2248,99897
662,845	2265,61096
663,04	2053,79161
663,236	2292,60497
663,431	2224,08058
663,627	2120,24861
663,822	2132,7089
664,018	2014,33108
664,213	2070,4062
664,409	1949,94541
664,604	2043,40739
664,799	1979,02323
664,995	1927,09806
665,19	1993,56188
665,386	1925,02101
665,581	1771,3093
665,776	1802,46866
665,972	1713,14301
666,167	1696,52355
666,362	1733,91701
666,557	1652,89636
666,753	1671,59393
666,948	1615,50036
667,143	1553,17104
667,338	1708,98817
667,533	1530,31612
667,728	1590,56902
667,924	1424,34655
668,119	1505,38298
668,314	1542,78249
668,509	1440,96987
668,704	1482,52712
668,899	1411,8789
669,094	1341,22632
669,289	1364,08499
669,484	1341,22632
669,679	1436,81406
669,874	1418,11274
670,069	1399,41112
670,264	1320,44532
670,459	1357,85085
670,654	1189,51614
670,849	1251,86528
671,043	1191,5945
671,238	1268,49113
671,433	1216,53453
671,628	1204,06458
671,823	1064,80726
672,018	1137,55583
672,212	1185,3594
672,407	1174,9675
672,602	1044,02106
672,797	1033,62781
672,991	1147,94809
673,186	1064,80726
673,381	1133,3989
673,575	1114,69252
673,77	1104,29995
673,965	1087,67162
674,159	1104,29995
674,354	992,0538
674,548	1133,3989
674,743	994,13254
674,937	1123,00651
675,132	1039,86377
675,326	992,0538
675,521	879,79584
675,715	944,24169
675,91	904,74309
676,104	913,05871
676,299	946,32052
676,493	931,7686
676,687	856,92701
676,882	890,1906
677,076	819,5042
677,271	865,24301
677,465	913,05871
677,659	917,21649
677,853	859,00602
678,048	761,28823
678,242	904,74309
678,436	869,40098
678,63	829,89956
678,825	896,42741
679,019	807,02963
679,213	748,81295
679,407	823,66236
679,601	811,18783
679,795	744,65449
679,99	838,21577
680,184	721,78265
680,378	725,9412
680,572	873,55894
680,766	794,5549
680,96	736,33752
681,154	719,70337
681,348	838,21577
681,542	817,42511
681,736	661,48167
681,93	861,08502
682,124	723,86193
682,317	748,81295
682,511	696,83096
682,705	628,21062
682,899	707,22757
683,093	601,17706
683,287	721,78265
683,481	686,43424
683,674	752,97139
683,868	738,41677
684,062	763,36743
684,256	586,62022
684,449	740,49601
684,643	686,43424
684,837	794,5549
685,03	665,64048
685,224	644,84628
685,418	746,73372
685,611	649,00516
685,805	811,18783
685,999	700,98962
686,192	657,32285
686,386	682,27552
686,579	671,87865
686,773	673,95804
686,966	630,29009
687,16	576,22235
687,353	538,78909
687,547	682,27552
687,74	621,97217
687,934	636,52848
688,127	651,08459
688,32	740,49601
688,514	592,85889
688,707	653,16401
688,9	782,08003
689,094	592,85889
689,287	667,71987
689,48	534,62975
689,674	607,41564
689,867	609,49515
690,06	493,03536
690,253	530,47039
690,447	742,57525
690,64	696,83096
690,833	655,24344
691,026	692,67229
691,219	769,605
691,412	613,65418
691,605	802,8714
691,799	619,89268
691,992	646,92572
692,185	640,68739
692,378	599,09752
692,571	553,34664
692,764	694,75163
692,957	545,02806
693,15	709,30688
693,343	601,17706
693,536	719,70337
693,729	582,46108
693,921	673,95804
694,114	642,76684
694,307	601,17706
694,5	520,07192
694,693	617,81318
694,886	605,33611
695,079	551,267
695,271	692,67229
695,464	574,14276
695,657	559,58552
695,85	619,89268
696,042	617,81318
696,235	709,30688
696,428	638,60794
696,62	605,33611
696,813	715,54478
697,006	663,56108
697,198	572,06317
697,391	661,48167
697,584	569,98357
697,776	651,08459
697,969	624,05165
698,161	757,12982
698,354	628,21062
698,546	624,05165
698,739	613,65418
698,931	676,03741
699,124	530,47039
699,316	802,8714
699,509	617,81318
699,701	719,70337
699,893	617,81318
700,086	661,48167
700,278	640,68739
700,47	676,03741
700,663	673,95804
700,855	780,00087
701,047	441,03986
701,24	651,08459
701,432	592,85889
701,624	580,38151
701,816	765,44662
702,008	738,41677
702,201	671,87865
702,393	671,87865
702,585	644,84628
702,777	667,71987
702,969	636,52848
703,161	769,605
703,353	636,52848
703,546	740,49601
703,738	601,17706
703,93	682,27552
704,122	611,57467
704,314	661,48167
704,506	638,60794
704,698	659,40227
704,89	638,60794
705,082	619,89268
705,273	690,59294
705,465	599,09752
705,657	796,63403
705,849	644,84628
706,041	723,86193
706,233	738,41677
706,425	617,81318
706,616	578,30193
706,808	690,59294
707	638,60794
707,192	682,27552
707,383	667,71987
707,575	777,9217
707,767	638,60794
707,959	752,97139
708,15	613,65418
708,342	721,78265
708,534	769,605
708,725	653,16401
708,917	894,34848
709,108	657,32285
709,3	599,09752
709,491	532,55007
709,683	728,02047
709,875	673,95804
710,066	821,58328
710,258	642,76684
710,449	567,90397
710,64	603,25659
710,832	713,46549
711,023	736,33752
711,215	671,87865
711,406	588,69978
711,597	657,32285
711,789	657,32285
711,98	628,21062
712,171	711,38619
712,363	649,00516
712,554	651,08459
712,745	626,13114
712,937	632,36956
713,128	707,22757
713,319	705,14826
713,51	621,97217
713,701	638,60794
713,893	646,92572
714,084	750,89217
714,275	586,62022
714,466	586,62022
714,657	690,59294
714,848	557,5059
715,039	605,33611
715,23	578,30193
715,421	632,36956
715,612	642,76684
715,803	638,60794
715,994	636,52848
716,185	773,76336
716,376	605,33611
716,567	601,17706
716,758	628,21062
716,949	578,30193
717,14	700,98962
717,331	499,27464
717,522	680,19616
717,712	603,25659
717,903	611,57467
718,094	617,81318
718,285	663,56108
718,476	649,00516
718,666	532,55007
718,857	649,00516
719,048	480,5567
719,238	557,5059
719,429	680,19616
719,62	501,35438
719,81	597,01798
720,001	599,09752
720,192	630,29009
720,382	582,46108
720,573	451,43918
720,763	536,70942
720,954	463,91823
721,144	632,36956
721,335	667,71987
721,525	488,87583
721,716	540,86875
721,906	536,70942
722,097	455,59888
722,287	480,5567
722,478	416,081
722,668	538,78909
722,858	457,67873
723,049	569,98357
723,239	378,64149
723,429	517,99221
723,62	470,15769
723,81	555,42627
724	370,32139
724,191	503,43413
724,381	547,10771
724,571	511,75306
724,761	507,5936
724,951	499,27464
725,142	395,28146
725,332	407,76124
725,522	345,36067
725,712	443,11973
725,902	384,88151
726,092	436,88009
726,282	493,03536
726,472	378,64149
726,662	438,95998
726,852	368,24136
727,042	453,51904
727,232	380,7215
727,422	407,76124
727,612	399,4414
727,802	343,28057
727,992	357,84111
728,182	395,28146
728,372	301,67777
728,562	359,92117
728,752	351,60091
728,942	364,08128
729,131	370,32139
729,321	443,11973
729,511	318,31912
729,701	422,32078
729,89	411,92113
730,08	341,20048
730,27	459,75857
730,46	260,07309
730,649	353,68098
730,839	324,55955
731,029	235,10937
731,218	309,99848
731,408	243,43069
731,597	357,84111
731,787	297,51739
731,977	314,15881
732,166	334,96016
732,356	330,79993
732,545	334,96016
732,735	324,55955
732,924	278,79543
733,114	314,15881
733,303	245,51101
733,492	226,78798
733,682	297,51739
733,871	291,27678
734,061	287,11635
734,25	341,20048
734,439	297,51739
734,629	262,15337
734,818	222,62726
735,007	332,88005
735,197	251,75193
735,386	212,22536
735,575	166,45558
735,764	249,67163
735,954	272,5547
736,143	156,05303
736,332	316,23897
736,521	326,63968
736,71	205,98416
736,899	208,06457
737,088	191,42121
737,278	222,62726
737,467	214,30575
737,656	203,90376
737,845	334,96016
738,034	222,62726
738,223	220,54689
738,412	278,79543
738,601	278,79543
738,79	235,10937
738,979	203,90376
739,168	137,32814
739,356	228,86834
739,545	191,42121
739,734	243,43069
739,923	191,42121
740,112	183,09941
740,301	287,11635
740,489	268,39418
740,678	114,44162
740,867	260,07309
741,056	251,75193
741,245	257,99281
741,433	285,03613
741,622	212,22536
741,811	164,37508
741,999	230,94869
742,188	243,43069
742,377	285,03613
742,565	178,93848
742,754	216,38613
742,942	287,11635
743,131	193,50164
743,319	151,89198
743,508	137,32814
743,697	314,15881
743,885	145,65036
744,073	239,27004
744,262	143,56981
744,45	120,68345
744,639	158,13355
744,827	145,65036
745,016	228,86834
745,204	135,24757
745,392	203,90376
745,581	260,07309
745,769	220,54689
745,957	153,97251
746,146	181,01895
746,334	145,65036
746,522	56,18232
746,71	266,31392
746,899	183,09941
747,087	137,32814
747,275	295,43719
747,463	116,52223
747,651	176,85801
747,84	222,62726
748,028	187,26032
748,216	208,06457
748,404	114,44162
748,592	210,14497
748,78	178,93848
748,968	187,26032
749,156	110,28037
749,344	249,67163
749,532	176,85801
749,72	187,26032
749,908	120,68345
750,096	151,89198
750,284	197,6625
750,472	226,78798
750,66	208,06457
750,847	220,54689
751,035	197,6625
751,223	174,77754
751,411	280,87567
751,599	126,92525
751,787	62,42457
751,974	174,77754
752,162	47,85924
752,35	74,90895
752,537	110,28037
752,725	112,36099
752,913	22,88954
753,101	158,13355
753,288	201,82334
753,476	181,01895
753,663	112,36099
753,851	87,39314
754,039	156,05303
754,226	-6,24271
754,414	166,45558
754,601	187,26032
754,789	74,90895
754,976	141,48926
755,164	230,94869
755,351	85,31245
755,539	116,52223
755,726	197,6625
755,913	164,37508
756,101	153,97251
756,288	156,05303
756,476	197,6625
756,663	274,63495
756,85	91,5545
757,037	129,00584
757,225	33,29367
757,412	45,77846
757,599	185,17987
757,787	414,00107
757,974	12,48528
758,161	110,28037
758,348	162,29458
758,535	164,37508
758,722	91,5545
758,91	116,52223
759,097	101,95781
759,284	116,52223
759,471	24,97037
759,658	143,56981
759,845	118,60285
760,032	197,6625
760,219	89,47382
760,406	60,34383
760,593	110,28037
760,78	156,05303
760,967	120,68345
761,154	199,74292
761,341	185,17987
761,528	72,82823
761,715	178,93848
761,901	120,68345
762,088	110,28037
762,275	101,95781
762,462	149,81145
762,649	166,45558
762,835	33,29367
763,022	131,08642
763,209	22,88954
763,396	118,60285
763,582	135,24757
763,769	193,50164
763,956	41,61688
764,142	104,03846
764,329	31,21285
764,516	243,43069
764,702	97,7965
764,889	76,98966
765,075	95,71584
765,262	108,19974
765,448	81,15107
765,635	91,5545
765,821	147,73091
766,008	104,03846
766,194	122,76406
766,381	170,61657
766,567	97,7965
766,754	33,29367
766,94	158,13355
767,127	37,45529
767,313	129,00584
767,499	8,32354
767,686	122,76406
767,872	114,44162
768,058	149,81145
768,244	70,74751
768,431	81,15107
768,617	49,94002
768,803	116,52223
768,989	189,34076
769,176	120,68345
769,362	79,07036
769,548	181,01895
769,734	31,21285
769,92	95,71584
770,106	116,52223
770,292	87,39314
770,478	66,58605
770,664	174,77754
770,851	153,97251
771,037	-43,69991
771,223	66,58605
771,409	72,82823
771,594	101,95781
771,78	83,23176
771,966	224,70762
772,152	18,72785
772,338	58,26308
772,524	135,24757
772,71	101,95781
772,896	147,73091
773,082	151,89198
773,267	64,50531
773,453	14,56614
773,639	35,37448
773,825	41,61688
774,011	60,34383
774,196	95,71584
774,382	174,77754
774,568	72,82823
774,753	35,37448
774,939	52,02079
775,125	54,10156
775,31	68,66678
775,496	58,26308
775,681	197,6625
775,867	126,92525
776,053	137,32814
776,238	10,40441
776,424	110,28037
776,609	-16,64732
776,795	85,31245
776,98	104,03846
777,166	68,66678
777,351	6,24266
777,536	101,95781
777,722	101,95781
777,907	12,48528
778,093	89,47382
778,278	29,13203
778,463	126,92525
778,649	81,15107
778,834	70,74751
779,019	74,90895
779,204	58,26308
779,39	210,14497
779,575	199,74292
779,76	-8,32362
779,945	52,02079
780,13	39,53609
780,316	122,76406
780,501	-31,21399
780,686	56,18232
780,871	60,34383
781,056	120,68345
781,241	49,94002
781,426	172,69705
781,611	-12,48546
781,796	10,40441
781,981	183,09941
782,166	56,18232
782,351	120,68345
782,536	70,74751
782,721	52,02079
782,906	43,69768
783,091	41,61688
783,276	87,39314
783,461	153,97251
783,646	126,92525
783,83	101,95781
784,015	185,17987
784,2	29,13203
784,385	137,32814
784,57	60,34383
784,754	176,85801
784,939	22,88954
785,124	87,39314
785,308	62,42457
785,493	81,15107
785,678	151,89198
785,862	83,23176
786,047	120,68345
786,232	83,23176
786,416	4,16178
786,601	106,1191
786,785	106,1191
786,97	-12,48546
787,154	31,21285
787,339	29,13203
787,523	112,36099
787,708	133,167
787,892	20,80869
788,077	212,22536
788,261	45,77846
788,446	137,32814
788,63	68,66678
788,814	29,13203
788,999	158,13355
789,183	29,13203
789,367	-12,48546
789,552	68,66678
789,736	129,00584
789,92	131,08642
790,104	83,23176
790,289	8,32354
790,473	-60,34809
790,657	183,09941
790,841	62,42457
791,025	151,89198
791,21	93,63517
791,394	-0
791,578	43,69768
791,762	195,58207
791,946	27,0512
792,13	18,72785
792,314	164,37508
792,498	27,0512
792,682	45,77846
792,866	60,34383
793,05	47,85924
793,234	87,39314
793,418	68,66678
793,602	99,87716
793,786	52,02079
793,97	83,23176
794,153	116,52223
794,337	-68,6723
794,521	68,66678
794,705	-14,56639
794,889	-52,02396
795,073	72,82823
795,256	158,13355
795,44	64,50531
795,624	43,69768
795,807	87,39314
795,991	116,52223
796,175	76,98966
796,358	99,87716
796,542	52,02079
796,726	112,36099
796,909	-52,02396
797,093	156,05303
797,277	27,0512
797,46	93,63517
797,644	-29,13302
797,827	4,16178
798,011	24,97037
798,194	18,72785
798,378	-2,0809
798,561	66,58605
798,744	41,61688
798,928	-14,56639
799,111	47,85924
799,295	66,58605
799,478	18,72785
799,661	14,56614
799,845	97,7965
800,028	170,61657
800,211	52,02079
800,395	131,08642
800,578	33,29367
800,761	-20,8092
800,944	104,03846
801,127	14,56614
801,311	29,13203
801,494	14,56614
801,677	83,23176
801,86	12,48528
802,043	-16,64732
802,226	203,90376
802,409	99,87716
802,593	126,92525
802,776	-33,29497
802,959	122,76406
803,142	20,80869
803,325	27,0512
803,508	2,08089
803,691	118,60285
803,874	54,10156
804,056	104,03846
804,239	122,76406
804,422	10,40441
804,605	-10,40454
804,788	62,42457
804,971	133,167
805,154	104,03846
805,336	68,66678
805,519	49,94002
805,702	79,07036
805,885	27,0512
806,068	37,45529
806,25	56,18232
806,433	6,24266
806,616	141,48926
806,798	22,88954
806,981	112,36099
807,164	45,77846
807,346	58,26308
807,529	-35,37595
807,711	79,07036
807,894	62,42457
808,076	-20,8092
808,259	22,88954
808,442	-37,45693
808,624	41,61688
808,806	124,84466
808,989	124,84466
809,171	116,52223
809,354	-4,1618
809,536	126,92525
809,719	143,56981
809,901	27,0512
810,083	64,50531
810,266	149,81145
810,448	81,15107
810,63	-10,40454
810,813	68,66678
810,995	41,61688
811,177	81,15107
811,359	95,71584
811,542	183,09941
811,724	126,92525
811,906	22,88954
812,088	8,32354
812,27	-74,91552
812,452	-39,53792
812,634	131,08642
812,817	-29,13302
812,999	131,08642
813,181	93,63517
813,363	56,18232
813,545	16,647
813,727	-0
813,909	54,10156
814,091	14,56614
814,273	49,94002
814,455	64,50531
814,637	-22,89015
814,818	49,94002
815	62,42457
815,182	76,98966
815,364	87,39314
815,546	43,69768
815,728	131,08642
815,909	-33,29497
816,091	160,21407
816,273	-0
816,455	97,7965
816,636	54,10156
816,818	31,21285
817	106,1191
817,182	47,85924
817,363	8,32354
817,545	87,39314
817,726	166,45558
817,908	99,87716
818,09	70,74751
818,271	135,24757
818,453	-8,32362
818,634	-2,0809
818,816	85,31245
818,997	16,647
819,179	68,66678
819,36	-52,02396
819,542	-20,8092
819,723	147,73091
819,905	6,24266
820,086	126,92525
820,267	54,10156
820,449	-12,48546
820,63	-20,8092
820,811	4,16178
820,993	60,34383
821,174	282,9559
821,355	4,16178
821,536	24,97037
821,718	4,16178
821,899	176,85801
822,08	-31,21399
822,261	16,647
822,442	10,40441
822,624	83,23176
822,805	2,08089
822,986	43,69768
823,167	6,24266
823,348	-27,05206
823,529	47,85924
823,71	56,18232
823,891	76,98966
824,072	45,77846
824,253	66,58605
824,434	74,90895
824,615	79,07036
824,796	151,89198
824,977	95,71584
825,158	64,50531
825,339	27,0512
825,52	41,61688
825,7	97,7965
825,881	87,39314
826,062	-0
826,243	89,47382
826,424	60,34383
826,604	41,61688
826,785	-0
826,966	143,56981
827,147	-62,42914
827,327	97,7965
827,508	22,88954
827,689	160,21407
827,869	-52,02396
828,05	66,58605
828,231	29,13203
828,411	74,90895
828,592	-56,18602
828,772	66,58605
828,953	-27,05206
829,133	-8,32362
829,314	126,92525
829,494	-35,37595
829,675	126,92525
829,855	-20,8092
830,036	-14,56639
830,216	101,95781
830,396	-104,05113
830,577	101,95781
830,757	20,80869
830,938	-14,56639
831,118	-43,69991
831,298	12,48528
831,479	56,18232
831,659	45,77846
831,839	10,40441
832,019	70,74751
832,199	137,32814
832,38	62,42457
832,56	-24,9711
832,74	72,82823
832,92	62,42457
833,1	-49,94294
833,28	-0
833,461	35,37448
833,641	58,26308
833,821	70,74751
834,001	6,24266
834,181	76,98966
834,361	68,66678
834,541	52,02079
834,721	37,45529
834,901	4,16178
835,081	22,88954
835,261	27,0512
835,44	-2,0809
835,62	-24,9711
835,8	54,10156
835,98	41,61688
836,16	60,34383
836,34	12,48528
836,52	-68,6723
836,699	49,94002
836,879	118,60285
837,059	68,66678
837,239	-29,13302
837,418	-4,1618
837,598	-14,56639
837,778	56,18232
837,957	56,18232
838,137	-0
838,317	37,45529
838,496	-18,72826
838,676	29,13203
838,855	-45,78092
839,035	-27,05206
839,214	54,10156
839,394	-8,32362
839,573	29,13203
839,753	54,10156
839,932	70,74751
840,112	-33,29497
840,291	101,95781
840,471	70,74751
840,65	-8,32362
840,829	37,45529
841,009	181,01895
841,188	-2,0809
841,367	4,16178
841,547	18,72785
841,726	41,61688
841,905	-33,29497
842,085	-0
842,264	133,167
842,443	-131,10655
842,622	72,82823
842,801	-14,56639
842,981	27,0512
843,16	-31,21399
843,339	39,53609
843,518	74,90895
843,697	2,08089
843,876	-52,02396
844,055	-2,0809
844,234	62,42457
844,413	76,98966
844,592	-6,24271
844,771	45,77846
844,95	8,32354
845,129	-37,45693
845,308	27,0512
845,487	-10,40454
845,666	-12,48546
845,845	31,21285
846,024	-24,9711
846,202	2,08089
846,381	-91,56432
846,56	45,77846
846,739	-8,32362
846,918	110,28037
847,096	-10,40454
847,275	205,98416
847,454	-49,94294
847,633	160,21407
847,811	68,66678
847,99	12,48528
848,169	20,80869
848,347	-2,0809
848,526	-18,72826
848,704	27,0512
848,883	41,61688
849,062	-12,48546
849,24	104,03846
849,419	54,10156
849,597	35,37448
849,776	14,56614
849,954	4,16178
850,133	79,07036
850,311	-12,48546
850,49	22,88954
850,668	99,87716
850,846	149,81145
851,025	-74,91552
851,203	62,42457
851,381	24,97037
851,56	47,85924
851,738	81,15107
851,916	-35,37595
852,095	37,45529
852,273	89,47382
852,451	-8,32362
852,629	29,13203
852,807	29,13203
852,986	99,87716
853,164	-54,10499
853,342	81,15107
853,52	-4,1618
853,698	-0
853,876	10,40441
854,054	203,90376
854,232	49,94002
854,41	66,58605
854,588	-10,40454
854,766	22,88954
854,944	20,80869
855,122	14,56614
855,3	93,63517
855,478	-37,45693
855,656	66,58605
855,834	-20,8092
856,012	-0
856,19	27,0512
856,368	145,65036
856,545	18,72785
856,723	24,97037
856,901	110,28037
857,079	-64,51019
857,256	8,32354
857,434	-27,05206
857,612	-10,40454
857,79	81,15107
857,967	43,69768
858,145	68,66678
858,323	83,23176
858,5	-99,88884
858,678	62,42457
858,855	39,53609
859,033	27,0512
859,211	-68,6723
859,388	-22,89015
859,566	70,74751
859,743	70,74751
859,921	47,85924
860,098	41,61688
860,276	35,37448
860,453	124,84466
860,63	-16,64732
860,808	-29,13302
860,985	-31,21399
861,162	52,02079
861,34	-2,0809
861,517	72,82823
861,694	-4,1618
861,872	64,50531
862,049	64,50531
862,226	79,07036
862,403	-74,91552
862,581	37,45529
862,758	29,13203
862,935	8,32354
863,112	58,26308
863,289	-52,02396
863,467	112,36099
863,644	-33,29497
863,821	-2,0809
863,998	22,88954
864,175	20,80869
864,352	12,48528
864,529	143,56981
864,706	37,45529
864,883	24,97037
865,06	49,94002
865,237	41,61688
865,414	72,82823
865,591	45,77846
865,768	52,02079
865,944	151,89198
866,121	-6,24271
866,298	87,39314
866,475	58,26308
866,652	27,0512
866,829	10,40441
867,005	22,88954
867,182	-49,94294
867,359	14,56614
867,536	18,72785
867,712	2,08089
867,889	49,94002
868,066	97,7965
868,242	8,32354
868,419	-27,05206
868,596	27,0512
868,772	-2,0809
868,949	91,5545
869,125	-2,0809
869,302	29,13203
869,478	14,56614
869,655	83,23176
869,831	6,24266
870,008	-62,42914
870,184	178,93848
870,361	16,647
870,537	-14,56639
870,714	79,07036
870,89	20,80869
871,066	-8,32362
871,243	97,7965
871,419	39,53609
871,595	74,90895
871,772	12,48528
871,948	31,21285
872,124	-0
872,3	-70,75337
872,477	39,53609
872,653	79,07036
872,829	145,65036
873,005	6,24266
873,181	-83,23988
873,357	20,80869
873,533	29,13203
873,71	166,45558
873,886	74,90895
874,062	97,7965
874,238	70,74751
874,414	54,10156
874,59	-22,89015
874,766	39,53609
874,942	124,84466
875,118	66,58605
875,294	-108,21345
875,47	-22,89015
875,645	41,61688
875,821	-31,21399
875,997	110,28037
876,173	-31,21399
876,349	27,0512
876,525	31,21285
876,7	-6,24271
876,876	-47,86193
877,052	31,21285
877,228	110,28037
877,403	16,647
877,579	35,37448
877,755	6,24266
877,931	-8,32362
878,106	64,50531
878,282	72,82823
878,457	47,85924
878,633	41,61688
878,809	47,85924
878,984	-16,64732
879,16	-12,48546
879,335	-16,64732
879,511	35,37448
879,686	-108,21345
879,862	110,28037
880,037	16,647
880,213	-47,86193
880,388	64,50531
880,563	10,40441
880,739	85,31245
880,914	18,72785
881,089	35,37448
881,265	-8,32362
881,44	-35,37595
881,615	164,37508
881,791	68,66678
881,966	6,24266
882,141	60,34383
882,316	12,48528
882,492	-79,07769
882,667	2,08089
882,842	-4,1618
883,017	-18,72826
883,192	-45,78092
883,367	33,29367
883,542	47,85924
883,718	-24,9711
883,893	133,167
884,068	-58,26705
884,243	64,50531
884,418	-66,59124
884,593	-39,53792
884,768	81,15107
884,943	-14,56639
885,117	66,58605
885,292	14,56614
885,467	97,7965
885,642	-0
885,817	35,37448
885,992	31,21285
886,167	137,32814
886,342	24,97037
886,516	-14,56639
886,691	76,98966
886,866	66,58605
887,041	45,77846
887,215	156,05303
887,39	52,02079
887,565	114,44162
887,739	18,72785
887,914	37,45529
888,089	-37,45693
888,263	-6,24271
888,438	33,29367
888,612	135,24757
888,787	41,61688
888,962	-8,32362
889,136	27,0512
889,311	72,82823
889,485	18,72785
889,659	31,21285
889,834	-6,24271
890,008	72,82823
890,183	-16,64732
890,357	-27,05206
890,532	4,16178
890,706	143,56981
890,88	20,80869
891,055	14,56614
891,229	58,26308
891,403	24,97037
891,577	114,44162
891,752	-45,78092
891,926	-24,9711
892,1	10,40441
892,274	131,08642
892,449	37,45529
892,623	-33,29497
892,797	-47,86193
892,971	18,72785
893,145	62,42457
893,319	16,647
893,493	89,47382
893,667	72,82823
893,841	97,7965
894,015	20,80869
894,189	64,50531
894,363	108,19974
894,537	-58,26705
894,711	24,97037
894,885	41,61688
895,059	33,29367
895,233	-52,02396
895,407	-31,21399
895,581	-35,37595
895,755	2,08089
895,928	-68,6723
896,102	41,61688
896,276	81,15107
896,45	41,61688
896,623	-27,05206
896,797	-37,45693
896,971	72,82823
897,145	66,58605
897,318	64,50531
897,492	91,5545
897,666	-12,48546
897,839	-41,61891
898,013	110,28037
898,186	-12,48546
898,36	-43,69991
898,534	70,74751
898,707	-47,86193
898,881	-47,86193
899,054	12,48528
899,228	49,94002
899,401	-62,42914
899,574	56,18232
899,748	-10,40454
899,921	-87,40209
900,095	-10,40454
900,268	29,13203
900,441	-12,48546
900,615	8,32354
900,788	-12,48546
900,961	54,10156
901,135	-24,9711
901,308	120,68345
901,481	-27,05206
901,654	-29,13302
901,828	41,61688
902,001	-14,56639
902,174	-95,72657
902,347	-70,75337
902,52	137,32814
902,693	14,56614
902,866	110,28037
903,04	8,32354
903,213	54,10156
903,386	-16,64732
903,559	12,48528
903,732	-6,24271
903,905	-14,56639
904,078	-49,94294
904,251	60,34383
904,424	29,13203
904,596	35,37448
904,769	35,37448
904,942	27,0512
905,115	10,40441
905,288	8,32354
905,461	64,50531
905,634	47,85924
905,806	31,21285
905,979	43,69768
906,152	97,7965
906,325	95,71584
906,497	8,32354
906,67	104,03846
906,843	-2,0809
907,015	16,647
907,188	8,32354
907,361	-52,02396
907,533	95,71584
907,706	16,647
907,878	-27,05206
908,051	-97,8077
908,224	178,93848
908,396	-49,94294
908,569	-22,89015
908,741	-37,45693
908,914	43,69768
909,086	99,87716
909,258	47,85924
909,431	14,56614
909,603	-37,45693
909,776	64,50531
909,948	85,31245
910,12	66,58605
910,293	-24,9711
910,465	-33,29497
910,637	-58,26705
910,81	-6,24271
910,982	-18,72826
911,154	-22,89015
911,326	-10,40454
911,498	-6,24271
911,671	-14,56639
911,843	37,45529
912,015	-2,0809
912,187	12,48528
912,359	-14,56639
912,531	18,72785
912,703	-24,9711
912,875	16,647
913,047	41,61688
913,219	156,05303
913,391	-60,34809
913,563	27,0512
913,735	-18,72826
913,907	64,50531
914,079	29,13203
914,251	-0
914,423	76,98966
914,595	16,647
914,767	-12,48546
914,939	66,58605
915,11	14,56614
915,282	-43,69991
915,454	-64,51019
915,626	83,23176
915,797	47,85924
915,969	54,10156
916,141	-20,8092
916,313	22,88954
916,484	114,44162
916,656	-33,29497
916,828	-49,94294
916,999	153,97251
917,171	-95,72657
917,342	24,97037
917,514	27,0512
917,685	-22,89015
917,857	-95,72657
918,028	-45,78092
918,2	-10,40454
918,371	-35,37595
918,543	-2,0809
918,714	-8,32362
918,886	-29,13302
919,057	-49,94294
919,229	-8,32362
919,4	-29,13302
919,571	43,69768
919,743	-20,8092
919,914	-18,72826
920,085	-39,53792
920,256	-41,61891
920,428	-43,69991
920,599	112,36099
920,77	83,23176
920,941	56,18232
921,113	101,95781
921,284	45,77846
921,455	12,48528
921,626	31,21285
921,797	54,10156
921,968	39,53609
922,139	-24,9711
922,31	-0
922,481	45,77846
922,652	149,81145
922,823	45,77846
922,994	-6,24271
923,165	60,34383
923,336	-16,64732
923,507	89,47382
923,678	99,87716
923,849	-22,89015
924,02	31,21285
924,191	2,08089
924,362	-120,70051
924,532	110,28037
924,703	52,02079
924,874	-45,78092
925,045	-27,05206
925,215	-8,32362
925,386	-52,02396
925,557	93,63517
925,728	-0
925,898	4,16178
926,069	-18,72826
926,24	74,90895
926,41	-31,21399
926,581	-43,69991
926,751	-4,1618
926,922	-16,64732
927,092	-76,9966
927,263	72,82823
927,433	116,52223
927,604	-91,56432
927,774	-47,86193
927,945	66,58605
928,115	87,39314
928,286	22,88954
928,456	27,0512
928,627	-6,24271
928,797	47,85924
928,967	41,61688
929,138	16,647
929,308	47,85924
929,478	52,02079
929,648	-33,29497
929,819	56,18232
929,989	-6,24271
930,159	37,45529
930,329	-14,56639
930,5	39,53609
930,67	16,647
930,84	-39,53792
931,01	-24,9711
931,18	85,31245
931,35	-12,48546
931,52	-93,64544
931,69	2,08089
931,86	-10,40454
932,03	-35,37595
932,2	83,23176
932,37	20,80869
932,54	118,60285
932,71	33,29367
932,88	-16,64732
933,05	52,02079
933,22	8,32354
933,39	27,0512
933,56	110,28037
933,73	-97,8077
933,899	-2,0809
934,069	-76,9966
934,239	-18,72826
934,409	-18,72826
934,578	2,08089
934,748	45,77846
934,918	24,97037
935,088	120,68345
935,257	-70,75337
935,427	-39,53792
935,596	16,647
935,766	18,72785
935,936	91,5545
936,105	33,29367
936,275	22,88954
936,444	-22,89015
936,614	-27,05206
936,783	76,98966
936,953	10,40441
937,122	-16,64732
937,292	-56,18602
937,461	-16,64732
937,631	-35,37595
937,8	81,15107
937,969	39,53609
938,139	10,40441
938,308	22,88954
938,477	33,29367
938,647	20,80869
938,816	29,13203
938,985	18,72785
939,155	58,26308
939,324	14,56614
939,493	-104,05113
939,662	-8,32362
939,831	76,98966
940,001	22,88954
940,17	41,61688
940,339	12,48528
940,508	-68,6723
940,677	110,28037
940,846	20,80869
941,015	10,40441
941,184	16,647
941,353	12,48528
941,522	14,56614
941,691	70,74751
941,86	-52,02396
942,029	60,34383
942,198	20,80869
942,367	45,77846
942,536	16,647
942,705	-8,32362
942,873	-60,34809
943,042	-24,9711
943,211	-95,72657
943,38	10,40441
943,549	64,50531
943,717	33,29367
943,886	-56,18602
944,055	45,77846
944,224	-14,56639
944,392	74,90895
944,561	-39,53792
944,73	72,82823
944,898	-8,32362
945,067	-89,4832
945,235	47,85924
945,404	-76,9966
945,572	83,23176
945,741	-43,69991
945,91	-47,86193
946,078	-0
946,247	49,94002
946,415	-43,69991
946,583	8,32354
946,752	2,08089
946,92	-143,59396
947,089	106,1191
947,257	-45,78092
947,425	-2,0809
947,594	-6,24271
947,762	24,97037
947,93	16,647
948,099	-16,64732
948,267	120,68345
948,435	22,88954
948,603	-39,53792
948,772	-39,53792
948,94	-6,24271
949,108	20,80869
949,276	66,58605
949,444	35,37448
949,612	47,85924
949,78	68,66678
949,948	-4,1618
950,116	-18,72826
950,285	43,69768
950,453	-24,9711
950,621	76,98966
950,789	37,45529
950,957	-37,45693
951,124	10,40441
951,292	6,24266
951,46	64,50531
951,628	-37,45693
951,796	83,23176
951,964	-76,9966
952,132	12,48528
952,3	8,32354
952,467	104,03846
952,635	72,82823
952,803	37,45529
952,971	-41,61891
953,138	43,69768
953,306	-33,29497
953,474	-16,64732
953,641	-4,1618
953,809	-64,51019
953,977	-31,21399
954,144	14,56614
954,312	-85,32098
954,48	4,16178
954,647	89,47382
954,815	176,85801
954,982	-16,64732
955,15	-8,32362
955,317	20,80869
955,485	54,10156
955,652	110,28037
955,82	68,66678
955,987	43,69768
956,154	33,29367
956,322	16,647
956,489	47,85924
956,656	-52,02396
956,824	-60,34809
956,991	-52,02396
957,158	-6,24271
957,326	70,74751
957,493	141,48926
957,66	83,23176
957,827	74,90895
957,994	97,7965
958,162	-29,13302
958,329	-14,56639
958,496	-60,34809
958,663	-2,0809
958,83	70,74751
958,997	12,48528
959,164	-76,9966
959,331	49,94002
959,498	79,07036
959,665	62,42457
959,832	83,23176
959,999	-8,32362
960,166	122,76406
960,333	20,80869
960,5	145,65036
960,667	43,69768
960,834	-35,37595
961,001	16,647
961,168	-4,1618
961,334	-83,23988
961,501	106,1191
961,668	-4,1618
961,835	-2,0809
962,002	24,97037
962,168	-39,53792
962,335	33,29367
962,502	20,80869
962,668	-0
962,835	-39,53792
963,002	6,24266
963,168	27,0512
963,335	74,90895
963,502	-6,24271
963,668	6,24266
963,835	83,23176
964,001	97,7965
964,168	-27,05206
964,334	22,88954
964,501	-58,26705
964,667	-52,02396
964,834	-4,1618
965	-12,48546
965,166	20,80869
965,333	-22,89015
965,499	20,80869
965,665	137,32814
965,832	54,10156
965,998	62,42457
966,164	-2,0809
966,331	16,647
966,497	74,90895
966,663	-8,32362
966,829	58,26308
966,996	108,19974
967,162	-27,05206
967,328	-52,02396
967,494	68,66678
967,66	22,88954
967,826	-31,21399
967,992	-45,78092
968,158	-45,78092
968,324	60,34383
968,491	-8,32362
968,657	106,1191
968,823	-16,64732
968,988	-29,13302
969,154	-22,89015
969,32	93,63517
969,486	-54,10499
969,652	68,66678
969,818	66,58605
969,984	-101,96998
970,15	-52,02396
970,316	-4,1618
970,481	2,08089
970,647	76,98966
970,813	29,13203
970,979	-4,1618
971,144	-49,94294
971,31	-14,56639
971,476	-2,0809
971,642	12,48528
971,807	66,58605
971,973	35,37448
972,138	-52,02396
972,304	-8,32362
972,47	-33,29497
972,635	14,56614
972,801	172,69705
972,966	-33,29497
973,132	-47,86193
973,297	18,72785
973,463	-58,26705
973,628	24,97037
973,794	-60,34809
973,959	-2,0809
974,125	-60,34809
974,29	39,53609
974,455	-72,83444
974,621	-12,48546
974,786	16,647
974,951	4,16178
975,117	41,61688
975,282	14,56614
975,447	16,647
975,612	139,4087
975,778	-58,26705
975,943	-22,89015
976,108	91,5545
976,273	110,28037
976,438	20,80869
976,603	-31,21399
976,768	-52,02396
976,934	-101,96998
977,099	-81,15878
977,264	-0
977,429	47,85924
977,594	29,13203
977,759	-70,75337
977,924	-14,56639
978,089	-35,37595
978,254	41,61688
978,418	4,16178
978,583	-45,78092
978,748	14,56614
978,913	-12,48546
979,078	97,7965
979,243	54,10156
979,408	162,29458
979,572	-16,64732
979,737	70,74751
979,902	-0
980,067	62,42457
980,231	-33,29497
980,396	-27,05206
980,561	8,32354
980,725	-47,86193
980,89	-12,48546
981,055	-56,18602
981,219	-54,10499
981,384	-18,72826
981,548	-10,40454
981,713	-8,32362
981,877	-35,37595
982,042	4,16178
982,206	-33,29497
982,371	4,16178
982,535	93,63517
982,7	274,63495
982,864	-49,94294
983,029	60,34383
983,193	-54,10499
983,357	60,34383
983,522	6,24266
983,686	56,18232
983,85	-27,05206
984,015	12,48528
984,179	56,18232
984,343	-0
984,507	-16,64732
984,672	83,23176
984,836	20,80869
985	-0
985,164	-160,24414
985,328	39,53609
985,492	-47,86193
985,656	149,81145
985,821	-6,24271
985,985	-49,94294
986,149	12,48528
986,313	27,0512
986,477	-27,05206
986,641	2,08089
986,805	22,88954
986,969	33,29367
987,133	-2,0809
987,296	-33,29497
987,46	6,24266
987,624	-24,9711
987,788	93,63517
987,952	-112,37578
988,116	97,7965
988,28	-45,78092
988,443	122,76406
988,607	35,37448
988,771	-20,8092
988,935	41,61688
989,098	-8,32362
989,262	-62,42914
989,426	-18,72826
989,589	-0
989,753	-76,9966
989,917	35,37448
990,08	95,71584
990,244	45,77846
990,407	-60,34809
990,571	-4,1618
990,734	-27,05206
990,898	12,48528
991,061	-4,1618
991,225	37,45529
991,388	-99,88884
991,552	33,29367
991,715	-20,8092
991,878	-20,8092
992,042	24,97037
992,205	-35,37595
992,369	-106,13229
992,532	-20,8092
992,695	-74,91552
992,858	-14,56639
993,022	-4,1618
993,185	-39,53792
993,348	-41,61891
993,511	31,21285
993,675	-27,05206
993,838	-24,9711
994,001	22,88954
994,164	35,37448
994,327	33,29367
994,49	16,647
994,653	35,37448
994,816	-91,56432
994,979	81,15107
995,142	-85,32098
995,305	2,08089
995,468	-76,9966
995,631	-114,45696
995,794	-74,91552
995,957	-12,48546
996,12	72,82823
996,283	129,00584
996,446	93,63517
996,609	-72,83444
996,772	99,87716
996,934	16,647
997,097	16,647
997,26	-2,0809
997,423	-56,18602
997,585	18,72785
997,748	-68,6723
997,911	-47,86193
998,074	20,80869
998,236	-64,51019
998,399	-39,53792
998,561	-104,05113
998,724	14,56614
998,887	33,29367
999,049	-6,24271
999,212	-2,0809
999,374	-49,94294
999,537	-33,29497
999,699	-52,02396
999,862	31,21285
1000,024	12,48528
1000,187	81,15107
1000,349	64,50531
1000,512	-33,29497
1000,674	41,61688
1000,836	87,39314
1000,999	24,97037
1001,161	-49,94294
1001,323	-14,56639
1001,486	-14,56639
1001,648	-45,78092
1001,81	56,18232
1001,972	10,40441
1002,134	27,0512
1002,297	64,50531
1002,459	8,32354
1002,621	-12,48546
1002,783	68,66678
1002,945	-6,24271
1003,107	16,647
1003,269	143,56981
1003,432	-29,13302
1003,594	-43,69991
1003,756	2,08089
1003,918	-39,53792
1004,08	-43,69991
1004,242	62,42457
1004,404	33,29367
1004,565	-64,51019
1004,727	18,72785
1004,889	45,77846
1005,051	-0
1005,213	64,50531
1005,375	72,82823
1005,537	101,95781
1005,698	-4,1618
1005,86	35,37448
1006,022	58,26308
1006,184	29,13203
1006,345	64,50531
1006,507	-49,94294
1006,669	6,24266
1006,831	-47,86193
1006,992	20,80869
1007,154	45,77846
1007,315	-56,18602
1007,477	12,48528
1007,639	10,40441
1007,8	-20,8092
1007,962	116,52223
1008,123	-60,34809
1008,285	104,03846
1008,446	47,85924
1008,608	-91,56432
1008,769	97,7965
1008,931	-41,61891
1009,092	-33,29497
1009,253	41,61688
1009,415	106,1191
1009,576	-91,56432
1009,737	-56,18602
1009,899	131,08642
1010,06	10,40441
1010,221	74,90895
1010,382	-10,40454
1010,544	-52,02396
1010,705	99,87716
1010,866	52,02079
1011,027	68,66678
1011,188	37,45529
1011,35	-37,45693
1011,511	-43,69991
1011,672	-27,05206
1011,833	-22,89015
1011,994	62,42457
1012,155	20,80869
1012,316	-74,91552
1012,477	62,42457
1012,638	10,40441
1012,799	95,71584
1012,96	37,45529
1013,121	68,66678
1013,282	16,647
1013,443	43,69768
1013,604	33,29367
1013,765	-16,64732
1013,925	-14,56639
1014,086	14,56614
1014,247	-56,18602
1014,408	122,76406
1014,569	-68,6723
1014,729	-18,72826
1014,89	54,10156
1015,051	-35,37595
1015,211	49,94002
1015,372	4,16178
1015,533	108,19974
1015,693	58,26308
1015,854	8,32354
1016,015	27,0512
1016,175	-4,1618
1016,336	-27,05206
1016,496	-56,18602
1016,657	27,0512
1016,817	31,21285
1016,978	-29,13302
1017,138	58,26308
1017,299	52,02079
1017,459	-39,53792
1017,62	12,48528
1017,78	16,647
1017,94	22,88954
1018,101	10,40441
1018,261	22,88954
1018,421	33,29367
1018,582	43,69768
1018,742	12,48528
1018,902	-89,4832
1019,062	62,42457
1019,223	-56,18602
1019,383	-35,37595
1019,543	-66,59124
1019,703	31,21285
1019,863	62,42457
1020,023	-22,89015
1020,184	20,80869
1020,344	-31,21399
1020,504	4,16178
1020,664	-49,94294
1020,824	14,56614
1020,984	-20,8092
1021,144	-18,72826
1021,304	-158,16285
1021,464	-18,72826
1021,624	37,45529
1021,784	-62,42914
1021,943	29,13203
1022,103	-22,89015
1022,263	8,32354
1022,423	8,32354
1022,583	-45,78092
1022,743	37,45529
1022,902	22,88954
1023,062	-43,69991
1023,222	-76,9966
1023,382	-49,94294
1023,541	8,32354
1023,701	58,26308
1023,861	-37,45693
1024,02	-20,8092
1024,18	-60,34809
1024,34	-52,02396
1024,499	68,66678
1024,659	120,68345
1024,818	-145,67521
1024,978	-83,23988
1025,137	8,32354
1025,297	-27,05206
1025,456	-0
1025,616	-70,75337
1025,775	-60,34809
1025,935	197,6625
1026,094	70,74751
1026,254	-27,05206
1026,413	70,74751
1026,572	-24,9711
1026,732	-33,29497
1026,891	20,80869
1027,05	20,80869
1027,21	95,71584
1027,369	-110,29461
1027,528	31,21285
1027,687	-4,1618
1027,846	-8,32362
1028,006	-154,00028
1028,165	24,97037
1028,324	16,647
1028,483	8,32354
1028,642	-18,72826
1028,801	24,97037
1028,96	43,69768
1029,119	-35,37595
1029,278	-6,24271
1029,437	-12,48546
1029,596	2,08089
1029,755	-89,4832
1029,914	41,61688
1030,073	-27,05206
1030,232	54,10156
1030,391	35,37448
1030,55	-18,72826
1030,709	139,4087
1030,868	-66,59124
1031,026	58,26308
1031,185	-39,53792
1031,344	70,74751
1031,503	16,647
1031,662	-10,40454
1031,82	10,40441
1031,979	-52,02396
1032,138	95,71584
1032,296	-56,18602
1032,455	8,32354
1032,614	76,98966
1032,772	66,58605
1032,931	-79,07769
1033,089	-2,0809
1033,248	93,63517
1033,407	-18,72826
1033,565	6,24266
1033,724	12,48528
1033,882	41,61688
1034,04	2,08089
1034,199	33,29367
1034,357	-91,56432
1034,516	-4,1618
1034,674	-43,69991
1034,832	-52,02396
1034,991	35,37448
1035,149	-27,05206
1035,307	20,80869
1035,466	-4,1618
1035,624	8,32354
1035,782	10,40441
1035,941	95,71584
1036,099	4,16178
1036,257	24,97037
1036,415	114,44162
1036,573	122,76406
1036,731	41,61688
1036,889	-0
1037,048	101,95781
1037,206	95,71584
1037,364	-70,75337
1037,522	-35,37595
1037,68	-35,37595
1037,838	-14,56639
1037,996	-14,56639
1038,154	-14,56639
