
345,274	-331,44868
345,493	-331,44868
345,712	-331,44868
345,932	-221,12424
346,151	7,80332
346,37	14,04592
346,59	70,22733
346,809	-106,65258
347,028	-0,52022
347,247	-52,54422
347,467	-96,24685
347,686	78,55019
347,905	76,46948
348,124	55,66213
348,343	7,80332
348,563	-54,62524
348,782	99,35699
349,001	80,63089
349,22	16,12678
349,439	18,20764
349,658	32,77347
349,877	-15,08662
350,096	-108,73374
350,315	109,76021
350,534	22,36933
350,753	55,66213
350,972	47,33905
351,191	80,63089
351,41	1,56067
351,629	-8,84385
351,848	95,19567
352,067	41,09669
352,286	28,61182
352,505	-85,84125
352,724	5,72244
352,943	-25,49134
353,162	5,72244
353,381	-46,30117
353,599	-37,97718
353,818	36,93509
354,037	-60,86835
354,256	66,06587
354,475	70,22733
354,693	-0,52022
354,912	57,74289
355,131	41,09669
355,35	30,69265
355,568	3,64156
355,787	-2,60112
356,006	9,88419
356,224	-85,84125
356,443	20,28848
356,661	66,06587
356,88	24,45016
357,099	-27,5723
357,317	32,77347
357,536	20,28848
357,754	14,04592
357,973	43,17748
358,191	7,80332
358,41	14,04592
358,628	-42,13916
358,847	74,38877
359,065	30,69265
359,284	-31,73424
359,502	-21,32944
359,721	-15,08662
359,939	5,72244
360,157	-21,32944
360,376	105,59894
360,594	-71,27364
360,813	-10,92477
361,031	-33,81521
361,249	74,38877
361,467	57,74289
361,686	-13,00569
361,904	32,77347
362,122	9,88419
362,341	30,69265
362,559	93,115
362,777	99,35699
362,995	105,59894
363,213	-15,08662
363,431	16,12678
363,65	159,69394
363,868	-139,95178
364,086	41,09669
364,304	47,33905
364,522	55,66213
364,74	-19,24849
364,958	51,5006
365,176	14,04592
365,394	16,12678
365,612	-75,43579
365,83	36,93509
366,048	147,21077
366,266	11,96506
366,484	22,36933
366,702	34,85428
366,92	-8,84385
367,138	-17,16755
367,356	57,74289
367,574	82,71159
367,792	51,5006
368,01	-31,73424
368,227	76,46948
368,445	14,04592
368,663	26,531
368,881	43,17748
369,099	-44,22016
369,316	113,92146
369,534	78,55019
369,752	5,72244
369,97	-90,00348
370,187	-4,68203
370,405	-8,84385
370,623	24,45016
370,84	45,25827
371,058	-35,89619
371,276	57,74289
371,493	80,63089
371,711	138,88856
371,928	45,25827
372,146	-17,16755
372,364	43,17748
372,581	16,12678
372,799	-75,43579
373,016	57,74289
373,234	39,01589
373,451	18,20764
373,669	34,85428
373,886	34,85428
374,103	5,72244
374,321	11,96506
374,538	84,79228
374,756	39,01589
374,973	59,82364
375,19	3,64156
375,408	-58,78731
375,625	34,85428
375,842	61,90439
376,06	34,85428
376,277	132,64685
376,494	-40,05817
376,712	14,04592
376,929	20,28848
377,146	80,63089
377,363	30,69265
377,581	-6,76293
377,798	82,71159
378,015	-62,9494
378,232	-25,49134
378,449	91,03433
378,666	-60,86835
378,883	-10,92477
379,101	-13,00569
379,318	1,56067
379,535	34,85428
379,752	86,87297
379,969	53,58137
380,186	45,25827
380,403	126,4051
380,62	9,88419
380,837	49,41983
381,054	24,45016
381,271	36,93509
381,488	39,01589
381,705	-94,16572
381,921	63,98513
382,138	134,72743
382,355	36,93509
382,572	36,93509
382,789	-25,49134
383,006	49,41983
383,223	-31,73424
383,439	74,38877
383,656	-46,30117
383,873	14,04592
384,09	22,36933
384,306	-60,86835
384,523	1,56067
384,74	178,41836
384,957	36,93509
385,173	-4,68203
385,39	70,22733
385,607	113,92146
385,823	116,00208
386,04	3,64156
386,256	-37,97718
386,473	111,84084
386,69	-17,16755
386,906	-27,5723
387,123	32,77347
387,339	-33,81521
387,556	-50,46319
387,772	-2,60112
387,989	-13,00569
388,205	9,88419
388,422	-44,22016
388,638	5,72244
388,855	95,19567
389,071	99,35699
389,287	-2,60112
389,504	82,71159
389,72	99,35699
389,937	3,64156
390,153	26,531
390,369	24,45016
390,585	22,36933
390,802	59,82364
391,018	24,45016
391,234	97,27633
391,451	-35,89619
391,667	-17,16755
391,883	55,66213
392,099	26,531
392,315	11,96506
392,532	-62,9494
392,748	180,49883
392,964	16,12678
393,18	-6,76293
393,396	82,71159
393,612	61,90439
393,828	11,96506
394,044	-40,05817
394,26	63,98513
394,477	43,17748
394,693	24,45016
394,909	99,35699
395,125	76,46948
395,341	82,71159
395,557	134,72743
395,772	-6,76293
395,988	168,01596
396,204	30,69265
396,42	43,17748
396,636	1,56067
396,852	-10,92477
397,068	5,72244
397,284	-58,78731
397,5	55,66213
397,715	72,30805
397,931	-13,00569
398,147	95,19567
398,363	14,04592
398,578	45,25827
398,794	-17,16755
399,01	41,09669
399,226	70,22733
399,441	24,45016
399,657	36,93509
399,873	-31,73424
400,088	-6,76293
400,304	49,41983
400,52	134,72743
400,735	16,12678
400,951	63,98513
401,166	101,43765
401,382	84,79228
401,597	9,88419
401,813	47,33905
402,029	7,80332
402,244	9,88419
402,46	68,1466
402,675	-77,51687
402,89	57,74289
403,106	51,5006
403,321	59,82364
403,537	-2,60112
403,752	95,19567
403,968	18,20764
404,183	68,1466
404,398	-27,5723
404,614	-29,65327
404,829	16,12678
405,044	72,30805
405,26	26,531
405,475	-33,81521
405,69	45,25827
405,905	-73,35471
406,121	149,29131
406,336	-27,5723
406,551	55,66213
406,766	41,09669
406,981	1,56067
407,196	5,72244
407,412	45,25827
407,627	-0,52022
407,842	59,82364
408,057	147,21077
408,272	-21,32944
408,487	28,61182
408,702	1,56067
408,917	30,69265
409,132	82,71159
409,347	36,93509
409,562	32,77347
409,777	76,46948
409,992	36,93509
410,207	9,88419
410,422	91,03433
410,637	26,531
410,852	-65,03045
411,067	74,38877
411,282	-127,46442
411,496	18,20764
411,711	47,33905
411,926	109,76021
412,141	80,63089
412,356	66,06587
412,571	14,04592
412,785	7,80332
413	55,66213
413,215	78,55019
413,429	47,33905
413,644	7,80332
413,859	-19,24849
414,074	53,58137
414,288	145,13023
414,503	-0,52022
414,718	-6,76293
414,932	-17,16755
415,147	57,74289
415,361	-4,68203
415,576	59,82364
415,79	-48,38218
416,005	39,01589
416,22	9,88419
416,434	86,87297
416,649	-52,54422
416,863	88,95365
417,077	3,64156
417,292	30,69265
417,506	303,23791
417,721	28,61182
417,935	107,67958
418,15	120,1633
418,364	86,87297
418,578	-8,84385
418,793	-8,84385
419,007	72,30805
419,221	-37,97718
419,436	11,96506
419,65	47,33905
419,864	-90,00348
420,078	11,96506
420,293	91,03433
420,507	-42,13916
420,721	82,71159
420,935	51,5006
421,149	70,22733
421,364	34,85428
421,578	72,30805
421,792	59,82364
422,006	18,20764
422,22	24,45016
422,434	101,43765
422,648	-87,92236
422,862	101,43765
423,076	51,5006
423,29	34,85428
423,504	-52,54422
423,718	140,96912
423,932	-77,51687
424,146	47,33905
424,36	126,4051
424,574	145,13023
424,788	93,115
425,002	61,90439
425,216	99,35699
425,43	-2,60112
425,644	107,67958
425,858	-35,89619
426,071	-8,84385
426,285	80,63089
426,499	28,61182
426,713	93,115
426,927	70,22733
427,14	-40,05817
427,354	228,34825
427,568	-25,49134
427,782	109,76021
427,995	-4,68203
428,209	138,88856
428,423	165,93546
428,636	-2,60112
428,85	-65,03045
429,063	-25,49134
429,277	66,06587
429,491	-10,92477
429,704	-37,97718
429,918	122,24391
430,131	72,30805
430,345	80,63089
430,558	-13,00569
430,772	120,1633
430,985	-29,65327
431,199	74,38877
431,412	49,41983
431,626	32,77347
431,839	70,22733
432,053	36,93509
432,266	97,27633
432,479	109,76021
432,693	43,17748
432,906	11,96506
433,119	24,45016
433,333	16,12678
433,546	197,1424
433,759	59,82364
433,973	-13,00569
434,186	88,95365
434,399	-19,24849
434,612	11,96506
434,825	192,98153
435,039	49,41983
435,252	-42,13916
435,465	149,29131
435,678	-58,78731
435,891	30,69265
436,104	130,56627
436,318	14,04592
436,531	-27,5723
436,744	63,98513
436,957	45,25827
437,17	-29,65327
437,383	61,90439
437,596	-0,52022
437,809	-33,81521
438,022	49,41983
438,235	-8,84385
438,448	82,71159
438,661	97,27633
438,874	51,5006
439,086	55,66213
439,299	209,62487
439,512	122,24391
439,725	145,13023
439,938	-27,5723
440,151	16,12678
440,364	26,531
440,576	70,22733
440,789	-21,32944
441,002	78,55019
441,215	93,115
441,427	-23,41039
441,64	24,45016
441,853	165,93546
442,066	140,96912
442,278	30,69265
442,491	122,24391
442,704	22,36933
442,916	51,5006
443,129	143,04968
443,341	45,25827
443,554	32,77347
443,767	-13,00569
443,979	113,92146
444,192	130,56627
444,404	99,35699
444,617	88,95365
444,829	-71,27364
445,042	11,96506
445,254	66,06587
445,467	-52,54422
445,679	111,84084
445,892	95,19567
446,104	128,48569
446,316	-2,60112
446,529	82,71159
446,741	-33,81521
446,953	20,28848
447,166	45,25827
447,378	45,25827
447,59	47,33905
447,803	39,01589
448,015	24,45016
448,227	7,80332
448,439	-4,68203
448,652	49,41983
448,864	53,58137
449,076	138,88856
449,288	18,20764
449,5	-67,11151
449,712	-35,89619
449,925	153,45238
450,137	49,41983
450,349	-23,41039
450,561	30,69265
450,773	-108,73374
450,985	57,74289
451,197	-35,89619
451,409	-35,89619
451,621	66,06587
451,833	80,63089
452,045	155,5329
452,257	-17,16755
452,469	66,06587
452,681	39,01589
452,893	-54,62524
453,105	66,06587
453,317	68,1466
453,529	5,72244
453,74	32,77347
453,952	7,80332
454,164	47,33905
454,376	84,79228
454,588	86,87297
454,799	-23,41039
455,011	5,72244
455,223	-75,43579
455,435	68,1466
455,646	49,41983
455,858	-15,08662
456,07	20,28848
456,281	-31,73424
456,493	68,1466
456,705	51,5006
456,916	-40,05817
457,128	70,22733
457,34	-23,41039
457,551	-19,24849
457,763	101,43765
457,974	63,98513
458,186	24,45016
458,397	-40,05817
458,609	16,12678
458,82	1,56067
459,032	-0,52022
459,243	55,66213
459,455	63,98513
459,666	-77,51687
459,878	55,66213
460,089	43,17748
460,3	61,90439
460,512	41,09669
460,723	95,19567
460,934	91,03433
461,146	18,20764
461,357	178,41836
461,568	-31,73424
461,78	153,45238
461,991	26,531
462,202	5,72244
462,413	70,22733
462,625	55,66213
462,836	95,19567
463,047	18,20764
463,258	95,19567
463,469	107,67958
463,68	57,74289
463,891	-13,00569
464,103	5,72244
464,314	128,48569
464,525	9,88419
464,736	80,63089
464,947	74,38877
465,158	20,28848
465,369	28,61182
465,58	-27,5723
465,791	32,77347
466,002	59,82364
466,213	-75,43579
466,424	-54,62524
466,635	61,90439
466,846	88,95365
467,056	-23,41039
467,267	72,30805
467,478	-42,13916
467,689	128,48569
467,9	16,12678
468,111	-19,24849
468,322	7,80332
468,532	-31,73424
468,743	-29,65327
468,954	72,30805
469,165	45,25827
469,375	34,85428
469,586	-2,60112
469,797	170,09645
470,007	-25,49134
470,218	-37,97718
470,429	14,04592
470,639	153,45238
470,85	-54,62524
471,061	30,69265
471,271	11,96506
471,482	95,19567
471,692	103,51829
471,903	41,09669
472,113	11,96506
472,324	136,808
472,534	53,58137
472,745	-29,65327
472,955	80,63089
473,166	-33,81521
473,376	91,03433
473,587	53,58137
473,797	-21,32944
474,007	28,61182
474,218	1,56067
474,428	76,46948
474,638	99,35699
474,849	82,71159
475,059	74,38877
475,269	14,04592
475,48	18,20764
475,69	-90,00348
475,9	1,56067
476,11	18,20764
476,321	149,29131
476,531	30,69265
476,741	51,5006
476,951	76,46948
477,161	-19,24849
477,371	-6,76293
477,581	124,32451
477,792	-144,11427
478,002	72,30805
478,212	91,03433
478,422	-44,22016
478,632	22,36933
478,842	-4,68203
479,052	11,96506
479,262	80,63089
479,472	107,67958
479,682	-0,52022
479,892	45,25827
480,102	7,80332
480,312	41,09669
480,522	14,04592
480,731	59,82364
480,941	99,35699
481,151	-44,22016
481,361	26,531
481,571	74,38877
481,781	76,46948
481,991	143,04968
482,2	74,38877
482,41	-48,38218
482,62	63,98513
482,83	9,88419
483,039	51,5006
483,249	34,85428
483,459	14,04592
483,668	-0,52022
483,878	18,20764
484,088	-69,19257
484,297	-2,60112
484,507	74,38877
484,716	84,79228
484,926	76,46948
485,136	-0,52022
485,345	124,32451
485,555	18,20764
485,764	76,46948
485,974	109,76021
486,183	101,43765
486,393	-35,89619
486,602	34,85428
486,812	18,20764
487,021	43,17748
487,23	5,72244
487,44	-0,52022
487,649	-65,03045
487,859	72,30805
488,068	-35,89619
488,277	57,74289
488,487	-40,05817
488,696	-23,41039
488,905	-37,97718
489,115	16,12678
489,324	-10,92477
489,533	-19,24849
489,742	59,82364
489,951	107,67958
490,161	84,79228
490,37	41,09669
490,579	-42,13916
490,788	118,08269
490,997	-102,49027
491,206	76,46948
491,415	9,88419
491,625	138,88856
491,834	5,72244
492,043	32,77347
492,252	1,56067
492,461	-23,41039
492,67	70,22733
492,879	82,71159
493,088	-27,5723
493,297	272,03463
493,506	14,04592
493,715	124,32451
493,924	5,72244
494,132	99,35699
494,341	66,06587
494,55	103,51829
494,759	-27,5723
494,968	74,38877
495,177	84,79228
495,386	151,37185
495,594	78,55019
495,803	107,67958
496,012	-15,08662
496,221	51,5006
496,429	-2,60112
496,638	74,38877
496,847	-10,92477
497,055	-44,22016
497,264	138,88856
497,473	91,03433
497,681	14,04592
497,89	174,25742
498,099	45,25827
498,307	-87,92236
498,516	118,08269
498,724	78,55019
498,933	18,20764
499,141	-17,16755
499,35	-21,32944
499,558	184,65975
499,767	28,61182
499,975	30,69265
500,184	97,27633
500,392	-100,40912
500,601	118,08269
500,809	11,96506
501,018	-4,68203
501,226	-0,52022
501,434	63,98513
501,643	9,88419
501,851	103,51829
502,059	-4,68203
502,268	59,82364
502,476	61,90439
502,684	63,98513
502,892	124,32451
503,101	24,45016
503,309	101,43765
503,517	103,51829
503,725	107,67958
503,933	-65,03045
504,141	43,17748
504,35	122,24391
504,558	66,06587
504,766	-2,60112
504,974	113,92146
505,182	80,63089
505,39	-42,13916
505,598	47,33905
505,806	66,06587
506,014	7,80332
506,222	103,51829
506,43	5,72244
506,638	82,71159
506,846	192,98153
507,054	1,56067
507,262	57,74289
507,47	41,09669
507,678	55,66213
507,886	-19,24849
508,094	80,63089
508,301	159,69394
508,509	1,56067
508,717	11,96506
508,925	95,19567
509,133	-42,13916
509,34	-52,54422
509,548	-6,76293
509,756	11,96506
509,964	45,25827
510,171	76,46948
510,379	70,22733
510,587	26,531
510,794	-33,81521
511,002	36,93509
511,21	118,08269
511,417	-29,65327
511,625	155,5329
511,832	-23,41039
512,04	-25,49134
512,247	14,04592
512,455	-13,00569
512,663	136,808
512,87	105,59894
513,078	130,56627
513,285	7,80332
513,492	3,64156
513,7	-50,46319
513,907	-92,0846
514,115	-87,92236
514,322	80,63089
514,529	32,77347
514,737	1,56067
514,944	-90,00348
515,152	20,28848
515,359	24,45016
515,566	18,20764
515,773	1,56067
515,981	-44,22016
516,188	7,80332
516,395	201,30324
516,602	5,72244
516,81	9,88419
517,017	11,96506
517,224	97,27633
517,431	26,531
517,638	24,45016
517,845	55,66213
518,053	49,41983
518,26	-29,65327
518,467	1,56067
518,674	1,56067
518,881	120,1633
519,088	84,79228
519,295	45,25827
519,502	39,01589
519,709	30,69265
519,916	-17,16755
520,123	9,88419
520,33	45,25827
520,537	61,90439
520,744	41,09669
520,95	-6,76293
521,157	26,531
521,364	124,32451
521,571	-21,32944
521,778	9,88419
521,985	59,82364
522,191	-27,5723
522,398	-15,08662
522,605	-25,49134
522,812	-85,84125
523,019	-35,89619
523,225	-33,81521
523,432	118,08269
523,639	68,1466
523,845	78,55019
524,052	7,80332
524,259	-52,54422
524,465	-10,92477
524,672	-27,5723
524,878	-33,81521
525,085	-2,60112
525,292	-25,49134
525,498	86,87297
525,705	86,87297
525,911	59,82364
526,118	20,28848
526,324	84,79228
526,531	107,67958
526,737	24,45016
526,944	26,531
527,15	116,00208
527,356	101,43765
527,563	122,24391
527,769	-6,76293
527,975	105,59894
528,182	105,59894
528,388	5,72244
528,594	-8,84385
528,801	88,95365
529,007	-58,78731
529,213	53,58137
529,42	28,61182
529,626	84,79228
529,832	-46,30117
530,038	-19,24849
530,244	66,06587
530,451	41,09669
530,657	51,5006
530,863	3,64156
531,069	-0,52022
531,275	-110,8149
531,481	126,4051
531,687	-6,76293
531,893	-33,81521
532,099	30,69265
532,305	-42,13916
532,511	-2,60112
532,717	-6,76293
532,923	-10,92477
533,129	36,93509
533,335	-106,65258
533,541	-13,00569
533,747	-10,92477
533,953	-17,16755
534,159	-8,84385
534,365	126,4051
534,571	57,74289
534,777	32,77347
534,982	22,36933
535,188	-27,5723
535,394	113,92146
535,6	109,76021
535,806	-19,24849
536,011	45,25827
536,217	107,67958
536,423	-4,68203
536,628	47,33905
536,834	-42,13916
537,04	86,87297
537,245	14,04592
537,451	20,28848
537,657	49,41983
537,862	26,531
538,068	-0,52022
538,273	-8,84385
538,479	107,67958
538,685	88,95365
538,89	14,04592
539,096	118,08269
539,301	-6,76293
539,507	-69,19257
539,712	36,93509
539,917	53,58137
540,123	205,46406
540,328	18,20764
540,534	82,71159
540,739	107,67958
540,944	-0,52022
541,15	41,09669
541,355	-31,73424
541,56	59,82364
541,766	51,5006
541,971	-52,54422
542,176	-52,54422
542,382	-2,60112
542,587	30,69265
542,792	109,76021
542,997	57,74289
543,202	111,84084
543,408	-4,68203
543,613	74,38877
543,818	5,72244
544,023	93,115
544,228	45,25827
544,433	-46,30117
544,638	34,85428
544,843	128,48569
545,049	5,72244
545,254	45,25827
545,459	57,74289
545,664	1,56067
545,869	16,12678
546,074	41,09669
546,279	32,77347
546,483	-2,60112
546,688	-10,92477
546,893	-2,60112
547,098	68,1466
547,303	-2,60112
547,508	53,58137
547,713	24,45016
547,918	-4,68203
548,122	-73,35471
548,327	41,09669
548,532	95,19567
548,737	5,72244
548,942	66,06587
549,146	9,88419
549,351	51,5006
549,556	57,74289
549,76	36,93509
549,965	72,30805
550,17	88,95365
550,374	-2,60112
550,579	-15,08662
550,784	132,64685
550,988	95,19567
551,193	61,90439
551,397	3,64156
551,602	39,01589
551,806	68,1466
552,011	16,12678
552,215	7,80332
552,42	-42,13916
552,624	36,93509
552,829	34,85428
553,033	18,20764
553,238	72,30805
553,442	18,20764
553,646	28,61182
553,851	97,27633
554,055	118,08269
554,26	20,28848
554,464	88,95365
554,668	28,61182
554,872	-0,52022
555,077	155,5329
555,281	53,58137
555,485	49,41983
555,69	61,90439
555,894	172,17693
556,098	174,25742
556,302	95,19567
556,506	122,24391
556,71	78,55019
556,915	82,71159
557,119	205,46406
557,323	190,9011
557,527	91,03433
557,731	157,61342
557,935	251,23185
558,139	203,38365
558,343	143,04968
558,547	251,23185
558,751	201,30324
558,955	242,91061
559,159	228,34825
559,363	288,67651
559,567	176,33789
559,771	284,51607
559,975	184,65975
560,179	199,22282
560,382	440,51989
560,586	326,11965
560,79	317,79908
560,994	292,83694
561,198	238,74996
561,402	272,03463
561,605	118,08269
561,809	247,07124
562,013	326,11965
562,217	303,23791
562,42	215,86604
562,624	280,35561
562,828	257,47274
563,031	301,15773
563,235	261,6333
563,439	251,23185
563,642	311,55861
563,846	255,39245
564,049	184,65975
564,253	286,5963
564,456	197,1424
564,66	265,79385
564,863	199,22282
565,067	317,79908
565,27	373,96145
565,474	299,07754
565,677	288,67651
565,881	272,03463
566,084	284,51607
566,288	284,51607
566,491	222,10716
566,694	261,6333
566,898	236,66963
567,101	272,03463
567,304	263,71358
567,508	190,9011
567,711	357,3211
567,914	240,83029
568,118	369,80139
568,321	340,68045
568,524	301,15773
568,727	192,98153
568,93	309,47844
569,134	224,18753
569,337	255,39245
569,54	330,2799
569,743	301,15773
569,946	226,26789
570,149	413,48109
570,352	353,16097
570,555	332,36002
570,758	255,39245
570,962	234,58929
571,165	244,99093
571,368	261,6333
571,571	309,47844
571,774	315,71893
571,976	330,2799
572,179	461,31844
572,382	328,19978
572,585	222,10716
572,788	284,51607
572,991	340,68045
573,194	236,66963
573,397	299,07754
573,6	382,28151
573,802	421,8008
574,005	380,2015
574,208	407,24125
574,411	263,71358
574,613	309,47844
574,816	477,95696
575,019	349,00081
575,222	384,36151
575,424	344,84064
575,627	421,8008
575,83	390,6015
576,032	334,44014
576,235	371,88142
576,438	423,88072
576,64	269,95438
576,843	446,7595
577,045	301,15773
577,248	386,44151
577,45	455,07892
577,653	415,56102
577,855	448,83936
578,058	409,3212
578,26	457,15877
578,463	444,67963
578,665	401,00138
578,868	434,28023
579,07	346,92073
579,272	496,67494
579,475	344,84064
579,677	434,28023
579,879	509,1534
580,082	569,46367
580,284	407,24125
580,486	444,67963
580,689	459,23861
580,891	525,79109
581,093	536,1895
581,295	584,02076
581,498	490,43566
581,7	534,10983
581,902	475,87716
582,104	656,803
582,306	638,08808
582,508	596,4981
582,71	608,97527
582,913	696,31113
583,115	700,46979
583,317	648,4853
583,519	731,65919
583,721	804,43074
583,923	885,51297
584,125	912,53898
584,327	729,57993
584,529	808,58896
584,731	889,67087
584,933	918,77566
585,135	827,30073
585,336	922,93342
585,538	1074,68057
585,74	1107,93736
585,942	1139,11468
586,144	1118,3299
586,346	1199,38832
586,547	1282,519
586,749	1186,91818
586,951	1294,98806
587,153	1338,62872
587,355	1390,57969
587,556	1635,75667
587,758	1471,61849
587,96	1666,91956
588,161	1693,92674
588,363	1710,54624
588,565	1841,41672
588,766	1955,65718
588,968	2107,26901
589,17	2107,26901
589,371	2186,18291
589,573	2265,09183
589,774	2395,90365
589,976	2331,53762
590,177	2547,4624
590,379	2752,97231
590,58	2771,6534
590,782	3109,94193
590,983	3257,26691
591,185	3414,94824
591,386	3479,26008
591,587	3755,14187
591,789	3952,16356
591,99	4188,54863
592,192	4470,49244
592,393	4605,22177
592,594	4802,10635
592,796	5309,70636
592,997	5407,05645
593,198	5527,17866
593,399	5868,83195
593,601	6251,7639
593,802	6531,10796
594,003	6847,59971
594,204	7015,11071
594,405	7422,38429
594,607	7616,65128
594,808	8046,36021
595,009	8393,2683
595,21	8651,28592
595,411	9059,80863
595,612	9338,21901
595,813	9799,93862
596,014	9968,88596
596,215	10358,1325
596,416	10582,51786
596,617	10584,57609
596,818	11078,36931
597,019	11401,19225
597,22	11403,24793
597,421	11649,88261
597,622	11643,71789
597,823	11832,7423
598,024	12050,46201
598,225	12200,35774
598,426	12360,48112
598,627	12364,58632
598,827	12495,93844
599,028	12362,53372
599,229	12660,09008
599,43	12268,1072
599,63	12619,05619
599,831	12204,46398
600,032	12645,72852
600,233	12442,57994
600,433	12467,2075
600,634	12179,82618
600,835	12001,1735
601,035	12146,97428
601,236	11799,87249
601,437	11808,0901
601,637	11314,84763
601,838	11397,08086
602,038	11471,08185
602,239	10864,43732
602,439	10745,09908
602,64	10559,87684
602,841	10555,76021
603,041	10316,95282
603,241	9911,2012
603,442	9991,54652
603,642	9721,6322
603,843	9323,78551
604,043	9294,91765
604,244	8966,98194
604,444	9028,86768
604,644	8958,73012
604,845	8880,33335
605,045	8403,59063
605,245	8259,0657
605,446	8153,7525
605,646	8097,99289
605,846	7736,49614
606,046	7684,84095
606,247	7319,03307
606,447	7211,53493
606,647	7172,25352
606,847	7226,00659
607,047	6816,57582
607,248	6628,34217
607,448	6607,65487
607,648	6415,2416
607,848	6346,95675
608,048	6278,66716
608,248	6059,28102
608,448	5974,41134
608,648	6057,21111
608,848	5786,01707
609,048	5670,06525
609,248	5552,02987
609,448	5475,40348
609,648	5458,8349
609,848	5208,20459
610,048	5017,60503
610,248	4936,79774
610,448	4870,49009
610,648	4737,86342
610,847	4706,77687
611,047	4603,14912
611,247	4534,74986
611,447	4232,08832
611,647	4485,00248
611,846	4285,99246
612,046	4093,17059
612,246	4030,96358
612,446	4057,92033
612,645	3715,73385
612,845	3773,80841
613,045	3796,62268
613,244	3682,54719
613,444	3634,83986
613,644	3599,57677
613,843	3363,08152
614,043	3421,17211
614,243	3263,49154
614,442	3278,01556
614,642	3375,52972
614,841	3211,61872
615,041	3012,4077
615,24	2991,65479
615,44	3087,11543
615,639	3080,88995
615,839	2850,52613
616,038	2701,07897
616,237	2802,78795
616,437	2568,22247
616,636	2601,43788
616,836	2699,00319
617,035	2674,09361
617,234	2578,60238
617,434	2582,75432
617,633	2445,73317
617,832	2414,58995
618,032	2551,61444
618,231	2325,30848
618,43	2435,35218
618,629	2341,91946
618,828	2435,35218
619,028	2408,36121
619,227	2244,32681
619,426	2238,09723
619,625	2094,80846
619,824	2287,93297
620,023	2053,2724
620,222	2088,57814
620,422	2134,26643
620,621	2217,33176
620,82	2038,73445
621,019	2196,56594
621,218	2067,81018
621,417	1941,11807
621,616	2119,72943
621,815	1980,58095
622,014	1959,81117
622,213	1907,8852
622,411	1941,11807
622,61	1993,04264
622,809	2009,65804
623,008	1966,04214
623,207	2074,04061
623,406	2015,88876
623,605	1974,35005
623,803	1936,96401
624,002	1882,95994
624,201	1820,64458
624,4	1828,95348
624,598	1912,03936
624,797	2034,58072
624,996	1907,8852
625,195	1864,26567
625,393	1752,09397
625,592	1831,03069
625,791	1641,98932
625,989	1936,96401
626,188	1743,78453
626,386	1779,09922
626,585	1810,25837
626,784	1783,25382
626,982	1648,22193
627,181	1762,48067
627,379	1664,84206
627,578	1654,45451
627,776	1870,49713
627,975	1714,70107
628,173	1893,34553
628,371	1673,15204
628,57	1777,02191
628,768	1606,67057
628,967	1668,99706
629,165	1725,08811
629,363	1569,27309
629,562	1629,524
629,76	1656,53202
629,958	1625,36886
630,157	1575,50609
630,355	1666,91956
630,553	1677,30701
630,751	1610,82577
630,95	1600,43774
631,148	1546,41849
631,346	1737,55242
631,544	1600,43774
631,742	1716,77849
631,94	1529,79669
632,139	1598,36012
632,337	1656,53202
632,535	1625,36886
632,733	1563,04007
632,931	1710,54624
633,129	1743,78453
633,327	1652,37698
633,525	1696,00419
633,723	1760,40334
633,921	1733,39767
634,119	1708,46881
634,317	1754,17131
634,515	1801,94934
634,713	1799,87208
634,91	1820,64458
635,108	1862,18851
635,306	1972,27308
635,504	1899,57684
635,702	2090,65492
635,9	1939,04105
636,097	2167,49322
636,295	1988,88876
636,493	2057,42607
636,691	2032,50385
636,888	2009,65804
637,086	2103,1155
637,284	2192,41274
637,482	2177,87642
637,679	2323,23209
637,877	2339,8431
638,075	2487,25628
638,272	2460,26641
638,47	2325,30848
638,667	2364,7592
638,865	2501,78905
639,062	2595,21006
639,26	2728,06377
639,457	2555,76647
639,655	2746,74522
639,852	2665,7903
640,05	2640,88007
640,247	2694,85163
640,445	2883,73426
640,642	2987,50417
640,84	2987,50417
641,037	2759,19937
641,234	2972,97688
641,432	3080,88995
641,629	3008,25715
641,826	2995,8054
642,024	3155,59373
642,221	3174,26899
642,418	3124,46768
642,615	3304,9883
642,813	3390,05248
643,01	3377,60441
643,207	3533,19654
643,404	3429,47055
643,602	3361,0068
643,799	3379,6791
643,996	3419,09749
644,193	3612,02268
644,39	3381,75378
644,587	3593,35377
644,784	3576,75896
644,981	3556,01514
645,178	3593,35377
645,375	3665,95354
645,572	3846,39785
645,769	3589,20509
645,966	3674,25039
646,163	3755,14187
646,36	3790,40065
646,557	3806,99267
646,754	3985,34312
646,951	3856,76743
647,148	3948,01605
647,345	4035,11081
647,542	3877,50634
647,738	4207,20868
647,935	4188,54863
648,132	4035,11081
648,329	3945,94229
648,526	4310,8705
648,722	4091,09708
648,919	4080,72944
649,116	4377,20944
649,312	4238,30815
649,509	4337,82113
649,706	4248,67446
649,902	4404,1586
650,099	4408,30458
650,296	4196,84202
650,492	4387,57458
650,689	4302,57788
650,885	4130,49331
651,082	4232,08832
651,278	4478,78391
651,475	4221,72186
651,671	4346,11351
651,868	4234,1616
652,064	4298,43154
652,261	4259,04069
652,457	4230,01503
652,654	4209,282
652,85	4128,41985
653,047	4128,41985
653,243	4103,53813
653,439	4205,13536
653,636	4149,15424
653,832	4080,72944
654,028	4068,28816
654,224	3831,8803
654,421	4010,22721
654,617	3892,02337
654,813	4039,25802
655,009	3833,95424
655,206	3806,99267
655,402	3833,95424
655,598	3854,69352
655,794	3674,25039
655,99	3535,27098
656,186	3553,94074
656,383	3543,56868
656,579	3412,87361
656,775	3354,78265
656,971	3273,86586
657,167	3560,16393
657,363	3282,16525
657,559	3244,81757
657,755	3373,45503
657,951	3180,49402
658,147	3348,55846
658,343	3313,28749
658,539	3062,21334
658,735	3089,19059
658,93	3124,46768
659,126	3085,04028
659,322	2908,6398
659,518	2929,39405
659,714	2771,6534
659,91	2823,5439
660,105	2885,80974
660,301	2885,80974
660,497	2813,16597
660,693	2771,6534
660,888	2568,22247
661,084	2653,33525
661,28	2549,53842
661,476	2651,25939
661,671	2456,11408
661,867	2549,53842
662,062	2458,19025
662,258	2647,10767
662,454	2541,23431
662,649	2472,72335
662,845	2501,78905
663,04	2439,50459
663,236	2281,70361
663,431	2373,06446
663,627	2215,25519
663,822	2159,18661
664,018	2173,72315
664,213	2082,34779
664,409	2049,11872
664,604	2173,72315
664,799	2003,4273
664,995	2123,88287
665,19	1995,11958
665,386	1949,42615
665,581	1887,11419
665,776	1980,58095
665,972	1891,26842
666,167	1789,48569
666,362	1700,15908
666,557	1797,79481
666,753	1739,6298
666,948	1662,76456
667,143	1760,40334
667,338	1770,78997
667,533	1673,15204
667,728	1619,13613
667,924	1540,18534
668,119	1696,00419
668,314	1581,73905
668,509	1515,25241
668,704	1496,55236
668,899	1556,807
669,094	1494,47456
669,289	1506,94131
669,484	1419,6712
669,679	1461,22922
669,874	1344,86296
670,069	1338,62872
670,264	1315,76954
670,459	1413,43737
670,654	1384,3457
670,849	1351,09717
671,043	1332,39444
671,238	1311,61327
671,433	1328,23824
671,628	1230,56305
671,823	1247,18921
672,018	1157,82064
672,212	1197,30997
672,407	1222,24987
672,602	1245,11096
672,797	1091,30909
672,991	1265,89335
673,186	1116,2514
673,381	1261,73691
673,575	1147,42848
673,77	1103,78032
673,965	1033,10815
674,159	1087,15199
674,354	1093,38764
674,548	1186,91818
674,743	1151,58536
674,937	1170,29111
675,132	1068,44481
675,326	1139,11468
675,521	1164,05589
675,715	1031,02948
675,91	1064,28761
676,104	1001,92777
676,299	1020,63611
676,493	933,32775
676,687	883,43402
676,882	970,74649
677,076	939,5643
677,271	897,9866
677,465	895,90767
677,659	904,22336
677,853	972,82527
678,048	821,06351
678,242	937,48545
678,436	985,29787
678,63	881,35506
678,825	912,53898
679,019	897,9866
679,213	864,72326
679,407	823,14259
679,601	945,80081
679,795	877,19714
679,99	854,32825
680,184	866,80225
680,378	821,06351
680,572	1026,87214
680,766	873,0392
680,96	777,40191
681,154	883,43402
681,348	914,61788
681,542	748,29314
681,736	833,53791
681,93	852,24923
682,124	783,6394
682,317	775,32274
682,511	858,48627
682,705	704,62843
682,899	735,8177
683,093	850,17021
683,287	746,21391
683,481	816,90534
683,674	785,71855
683,868	860,56527
684,062	804,43074
684,256	694,23179
684,449	854,32825
684,643	781,56024
684,837	897,9866
685,03	873,0392
685,224	756,61002
685,418	868,88124
685,611	841,8541
685,805	812,74716
685,999	800,2725
686,192	754,53081
686,386	706,70774
686,579	733,73845
686,773	652,64416
686,966	754,53081
687,16	760,76843
687,353	791,95598
687,547	900,06553
687,74	744,13468
687,934	735,8177
688,127	773,24357
688,32	737,89695
688,514	808,58896
688,707	706,70774
688,9	885,51297
689,094	679,67632
689,287	627,69075
689,48	642,24698
689,674	779,48108
689,867	723,34211
690,06	710,86636
690,253	760,76843
690,447	704,62843
690,64	777,40191
690,833	767,00602
691,026	839,77506
691,219	685,9144
691,412	769,0852
691,605	752,45159
691,799	679,67632
691,992	758,68923
692,185	619,3728
692,378	748,29314
692,571	756,61002
692,764	735,8177
692,957	800,2725
693,15	681,75568
693,343	696,31113
693,536	796,11425
693,729	794,03512
693,921	767,00602
694,114	696,31113
694,307	669,27942
694,5	615,2138
694,693	719,18354
694,886	700,46979
695,079	694,23179
695,271	752,45159
695,464	625,61127
695,657	785,71855
695,85	687,99376
696,042	673,43819
696,235	660,96182
696,428	667,20003
696,62	677,59694
696,813	831,45885
697,006	841,8541
697,198	715,02496
697,391	750,37237
697,584	831,45885
697,776	721,26283
697,969	821,06351
698,161	796,11425
698,354	658,88241
698,546	742,05544
698,739	731,65919
698,931	823,14259
699,124	669,27942
699,316	737,89695
699,509	725,42139
699,701	791,95598
699,893	825,22166
700,086	681,75568
700,278	665,12063
700,47	833,53791
700,663	754,53081
700,855	754,53081
701,047	696,31113
701,24	733,73845
701,432	704,62843
701,624	748,29314
701,816	806,50985
702,008	835,61696
702,201	721,26283
702,393	827,30073
702,585	671,35881
702,777	746,21391
702,969	777,40191
703,161	723,34211
703,353	702,54911
703,546	710,86636
703,738	690,07311
703,93	777,40191
704,122	737,89695
704,314	773,24357
704,506	922,93342
704,698	866,80225
704,89	835,61696
705,082	827,30073
705,273	721,26283
705,465	721,26283
705,657	750,37237
705,849	735,8177
706,041	806,50985
706,233	814,82625
706,425	710,86636
706,616	779,48108
706,808	723,34211
707	808,58896
707,192	825,22166
707,383	735,8177
707,575	823,14259
707,767	883,43402
707,959	891,74981
708,15	700,46979
708,342	648,4853
708,534	825,22166
708,725	679,67632
708,917	862,64427
709,108	729,57993
709,3	737,89695
709,491	663,04123
709,683	773,24357
709,875	710,86636
710,066	773,24357
710,258	702,54911
710,449	748,29314
710,64	692,15245
710,832	810,66806
711,023	808,58896
711,215	827,30073
711,406	737,89695
711,597	812,74716
711,789	789,87684
711,98	767,00602
712,171	727,50066
712,363	731,65919
712,554	764,92683
712,745	683,83504
712,937	746,21391
713,128	777,40191
713,319	762,84763
713,51	683,83504
713,701	742,05544
713,893	685,9144
714,084	823,14259
714,275	611,05479
714,466	679,67632
714,657	638,08808
714,848	690,07311
715,039	725,42139
715,23	631,84969
715,421	685,9144
715,612	631,84969
715,803	696,31113
715,994	696,31113
716,185	846,01216
716,376	648,4853
716,567	733,73845
716,758	665,12063
716,949	602,73671
717,14	685,9144
717,331	654,72358
717,522	737,89695
717,712	579,86161
717,903	652,64416
718,094	623,53178
718,285	698,39046
718,476	652,64416
718,666	698,39046
718,857	594,41855
719,048	463,39827
719,238	654,72358
719,429	644,32642
719,62	563,22485
719,81	556,98599
720,001	611,05479
720,192	598,57764
720,382	544,50815
720,573	536,1895
720,763	529,95047
720,954	561,14523
721,144	571,54327
721,335	644,32642
721,525	602,73671
721,716	565,30446
721,906	440,51989
722,097	482,11654
722,287	536,1895
722,478	636,00862
722,668	492,51542
722,858	550,74709
723,049	663,04123
723,239	382,28151
723,429	428,04054
723,62	559,06561
723,81	484,19633
724	461,31844
724,191	500,83445
724,381	527,87078
724,571	455,07892
724,761	584,02076
724,951	552,82673
725,142	517,47228
725,332	265,79385
725,522	448,83936
725,712	459,23861
725,902	378,12149
726,092	463,39827
726,282	488,35588
726,472	488,35588
726,662	463,39827
726,852	515,39257
727,042	469,63774
727,232	349,00081
727,422	507,07367
727,612	502,91419
727,802	463,39827
727,992	332,36002
728,182	534,10983
728,372	401,00138
728,562	452,99907
728,752	390,6015
728,942	450,91922
729,131	467,55792
729,321	430,12044
729,511	598,57764
729,701	405,1613
729,89	384,36151
730,08	396,84144
730,27	452,99907
730,46	413,48109
730,649	407,24125
730,839	334,44014
731,029	286,5963
731,218	257,47274
731,408	386,44151
731,597	409,3212
731,787	367,72135
731,977	436,36012
732,166	309,47844
732,356	361,48121
732,545	321,95937
732,735	380,2015
732,924	290,75673
733,114	284,51607
733,303	336,52025
733,492	269,95438
733,682	349,00081
733,871	330,2799
734,061	288,67651
734,25	419,72088
734,439	299,07754
734,629	346,92073
734,818	186,7402
735,007	336,52025
735,197	415,56102
735,386	251,23185
735,575	253,31215
735,764	261,6333
735,954	274,11488
736,143	234,58929
736,332	425,96063
736,521	286,5963
736,71	349,00081
736,899	313,63877
737,088	263,71358
737,278	280,35561
737,467	290,75673
737,656	238,74996
737,845	373,96145
738,034	332,36002
738,223	274,11488
738,412	355,24103
738,601	336,52025
738,79	342,76055
738,979	217,94642
739,168	305,31809
739,356	228,34825
739,545	303,23791
739,734	276,19513
739,923	255,39245
740,112	257,47274
740,301	228,34825
740,489	261,6333
740,678	197,1424
740,867	282,43584
741,056	371,88142
741,245	415,56102
741,433	336,52025
741,622	311,55861
741,811	284,51607
741,999	403,08134
742,188	209,62487
742,377	161,77445
742,565	278,27537
742,754	313,63877
742,942	274,11488
743,131	305,31809
743,319	232,50895
743,508	170,09645
743,697	328,19978
743,885	255,39245
744,073	240,83029
744,262	97,27633
744,45	236,66963
744,639	165,93546
744,827	220,02679
745,016	180,49883
745,204	215,86604
745,392	261,6333
745,581	255,39245
745,769	249,15155
745,957	165,93546
746,146	276,19513
746,334	236,66963
746,522	120,1633
746,71	234,58929
746,899	296,99734
747,087	213,78565
747,275	274,11488
747,463	61,90439
747,651	230,4286
747,84	249,15155
748,028	153,45238
748,216	113,92146
748,404	174,25742
748,592	199,22282
748,78	226,26789
748,968	215,86604
749,156	190,9011
749,344	209,62487
749,532	184,65975
749,72	217,94642
749,908	242,91061
750,096	122,24391
750,284	338,60035
750,472	180,49883
750,66	321,95937
750,847	234,58929
751,035	224,18753
751,223	190,9011
751,411	282,43584
751,599	91,03433
751,787	126,4051
751,974	184,65975
752,162	143,04968
752,35	176,33789
752,537	201,30324
752,725	147,21077
752,913	105,59894
753,101	234,58929
753,288	184,65975
753,476	168,01596
753,663	299,07754
753,851	174,25742
754,039	276,19513
754,226	122,24391
754,414	122,24391
754,601	197,1424
754,789	84,79228
754,976	172,17693
755,164	186,7402
755,351	61,90439
755,539	182,57929
755,726	234,58929
755,913	190,9011
756,101	116,00208
756,288	182,57929
756,476	126,4051
756,663	251,23185
756,85	113,92146
757,037	272,03463
757,225	68,1466
757,412	155,5329
757,599	197,1424
757,787	465,4781
757,974	91,03433
758,161	251,23185
758,348	178,41836
758,535	153,45238
758,722	180,49883
758,91	238,74996
759,097	109,76021
759,284	157,61342
759,471	153,45238
759,658	178,41836
759,845	178,41836
760,032	122,24391
760,219	109,76021
760,406	82,71159
760,593	182,57929
760,78	190,9011
760,967	86,87297
761,154	255,39245
761,341	176,33789
761,528	43,17748
761,715	151,37185
761,901	215,86604
762,088	211,70526
762,275	47,33905
762,462	197,1424
762,649	230,4286
762,835	30,69265
763,022	174,25742
763,209	86,87297
763,396	186,7402
763,582	232,50895
763,769	228,34825
763,956	88,95365
764,142	224,18753
764,329	170,09645
764,516	280,35561
764,702	278,27537
764,889	190,9011
765,075	55,66213
765,262	153,45238
765,448	82,71159
765,635	120,1633
765,821	122,24391
766,008	74,38877
766,194	203,38365
766,381	163,85496
766,567	178,41836
766,754	124,32451
766,94	226,26789
767,127	86,87297
767,313	116,00208
767,499	207,54447
767,686	159,69394
767,872	226,26789
768,058	124,32451
768,244	126,4051
768,431	259,55302
768,617	109,76021
768,803	172,17693
768,989	263,71358
769,176	151,37185
769,362	76,46948
769,548	134,72743
769,734	190,9011
769,92	124,32451
770,106	168,01596
770,292	201,30324
770,478	126,4051
770,664	105,59894
770,851	88,95365
771,037	213,78565
771,223	76,46948
771,409	134,72743
771,594	190,9011
771,78	178,41836
771,966	265,79385
772,152	76,46948
772,338	126,4051
772,524	143,04968
772,71	49,41983
772,896	113,92146
773,082	180,49883
773,267	201,30324
773,453	130,56627
773,639	80,63089
773,825	49,41983
774,011	149,29131
774,196	84,79228
774,382	174,25742
774,568	16,12678
774,753	138,88856
774,939	180,49883
775,125	113,92146
775,31	80,63089
775,496	97,27633
775,681	170,09645
775,867	95,19567
776,053	57,74289
776,238	57,74289
776,424	161,77445
776,609	66,06587
776,795	124,32451
776,98	172,17693
777,166	105,59894
777,351	99,35699
777,536	151,37185
777,722	51,5006
777,907	124,32451
778,093	11,96506
778,278	80,63089
778,463	209,62487
778,649	176,33789
778,834	172,17693
779,019	28,61182
779,204	111,84084
779,39	242,91061
779,575	201,30324
779,76	140,96912
779,945	157,61342
780,13	78,55019
780,316	213,78565
780,501	93,115
780,686	76,46948
780,871	201,30324
781,056	157,61342
781,241	195,06197
781,426	209,62487
781,611	-10,92477
781,796	80,63089
781,981	34,85428
782,166	128,48569
782,351	113,92146
782,536	199,22282
782,721	153,45238
782,906	126,4051
783,091	20,28848
783,276	28,61182
783,461	122,24391
783,646	195,06197
783,83	147,21077
784,015	107,67958
784,2	28,61182
784,385	170,09645
784,57	116,00208
784,754	178,41836
784,939	22,36933
785,124	91,03433
785,308	70,22733
785,493	43,17748
785,678	128,48569
785,862	16,12678
786,047	176,33789
786,232	174,25742
786,416	43,17748
786,601	82,71159
786,785	101,43765
786,97	172,17693
787,154	188,82065
787,339	209,62487
787,523	155,5329
787,708	68,1466
787,892	107,67958
788,077	61,90439
788,261	68,1466
788,446	199,22282
788,63	109,76021
788,814	101,43765
788,999	124,32451
789,183	68,1466
789,367	-15,08662
789,552	88,95365
789,736	163,85496
789,92	5,72244
790,104	242,91061
790,289	47,33905
790,473	57,74289
790,657	157,61342
790,841	82,71159
791,025	105,59894
791,21	61,90439
791,394	26,531
791,578	84,79228
791,762	305,31809
791,946	140,96912
792,13	66,06587
792,314	168,01596
792,498	68,1466
792,682	120,1633
792,866	143,04968
793,05	109,76021
793,234	151,37185
793,418	109,76021
793,602	203,38365
793,786	47,33905
793,97	172,17693
794,153	63,98513
794,337	-73,35471
794,521	136,808
794,705	82,71159
794,889	61,90439
795,073	103,51829
795,256	163,85496
795,44	91,03433
795,624	88,95365
795,807	132,64685
795,991	24,45016
796,175	7,80332
796,358	113,92146
796,542	74,38877
796,726	172,17693
796,909	59,82364
797,093	51,5006
797,277	145,13023
797,46	76,46948
797,644	45,25827
797,827	88,95365
798,011	-2,60112
798,194	41,09669
798,378	63,98513
798,561	116,00208
798,744	95,19567
798,928	78,55019
799,111	59,82364
799,295	95,19567
799,478	88,95365
799,661	24,45016
799,845	78,55019
800,028	143,04968
800,211	78,55019
800,395	161,77445
800,578	51,5006
800,761	53,58137
800,944	47,33905
801,127	57,74289
801,311	41,09669
801,494	18,20764
801,677	28,61182
801,86	99,35699
802,043	63,98513
802,226	147,21077
802,409	184,65975
802,593	45,25827
802,776	72,30805
802,959	165,93546
803,142	32,77347
803,325	93,115
803,508	124,32451
803,691	199,22282
803,874	68,1466
804,056	105,59894
804,239	88,95365
804,422	326,11965
804,605	76,46948
804,788	143,04968
804,971	7,80332
805,154	7,80332
805,336	113,92146
805,519	88,95365
805,702	88,95365
805,885	59,82364
806,068	88,95365
806,25	107,67958
806,433	-17,16755
806,616	132,64685
806,798	151,37185
806,981	149,29131
807,164	-2,60112
807,346	80,63089
807,529	51,5006
807,711	84,79228
807,894	34,85428
808,076	20,28848
808,259	111,84084
808,442	26,531
808,624	88,95365
808,806	122,24391
808,989	99,35699
809,171	24,45016
809,354	5,72244
809,536	95,19567
809,719	111,84084
809,901	138,88856
810,083	84,79228
810,266	111,84084
810,448	132,64685
810,63	36,93509
810,813	149,29131
810,995	43,17748
811,177	86,87297
811,359	122,24391
811,542	182,57929
811,724	172,17693
811,906	-19,24849
812,088	45,25827
812,27	28,61182
812,452	59,82364
812,634	49,41983
812,817	49,41983
812,999	157,61342
813,181	111,84084
813,363	118,08269
813,545	55,66213
813,727	105,59894
813,909	93,115
814,091	-4,68203
814,273	93,115
814,455	70,22733
814,637	36,93509
814,818	88,95365
815	91,03433
815,182	143,04968
815,364	11,96506
815,546	66,06587
815,728	149,29131
815,909	-31,73424
816,091	147,21077
816,273	74,38877
816,455	97,27633
816,636	63,98513
816,818	88,95365
817	107,67958
817,182	72,30805
817,363	91,03433
817,545	111,84084
817,726	7,80332
817,908	159,69394
818,09	-8,84385
818,271	80,63089
818,453	36,93509
818,634	126,4051
818,816	14,04592
818,997	-2,60112
819,179	45,25827
819,36	32,77347
819,542	18,20764
819,723	182,57929
819,905	103,51829
820,086	-4,68203
820,267	126,4051
820,449	97,27633
820,63	-6,76293
820,811	28,61182
820,993	45,25827
821,174	442,59976
821,355	20,28848
821,536	88,95365
821,718	61,90439
821,899	24,45016
822,08	22,36933
822,261	70,22733
822,442	45,25827
822,624	215,86604
822,805	59,82364
822,986	41,09669
823,167	28,61182
823,348	-4,68203
823,529	30,69265
823,71	30,69265
823,891	130,56627
824,072	78,55019
824,253	74,38877
824,434	182,57929
824,615	136,808
824,796	78,55019
824,977	49,41983
825,158	76,46948
825,339	26,531
825,52	49,41983
825,7	136,808
825,881	22,36933
826,062	-6,76293
826,243	76,46948
826,424	30,69265
826,604	28,61182
826,785	28,61182
826,966	197,1424
827,147	5,72244
827,327	145,13023
827,508	103,51829
827,689	-8,84385
827,869	24,45016
828,05	82,71159
828,231	70,22733
828,411	78,55019
828,592	-15,08662
828,772	63,98513
828,953	59,82364
829,133	-21,32944
829,314	20,28848
829,494	1,56067
829,675	28,61182
829,855	-52,54422
830,036	16,12678
830,216	-13,00569
830,396	-40,05817
830,577	136,808
830,757	28,61182
830,938	59,82364
831,118	-0,52022
831,298	126,4051
831,479	91,03433
831,659	103,51829
831,839	-2,60112
832,019	122,24391
832,199	30,69265
832,38	55,66213
832,56	41,09669
832,74	57,74289
832,92	120,1633
833,1	-62,9494
833,28	7,80332
833,461	51,5006
833,641	18,20764
833,821	82,71159
834,001	-33,81521
834,181	209,62487
834,361	30,69265
834,541	63,98513
834,721	43,17748
834,901	-6,76293
835,081	97,27633
835,261	53,58137
835,44	66,06587
835,62	-19,24849
835,8	147,21077
835,98	120,1633
836,16	7,80332
836,34	-6,76293
836,52	-4,68203
836,699	45,25827
836,879	107,67958
837,059	80,63089
837,239	43,17748
837,418	20,28848
837,598	45,25827
837,778	18,20764
837,957	-50,46319
838,137	-48,38218
838,317	-54,62524
838,496	-29,65327
838,676	68,1466
838,855	-10,92477
839,035	118,08269
839,214	45,25827
839,394	116,00208
839,573	18,20764
839,753	66,06587
839,932	22,36933
840,112	11,96506
840,291	113,92146
840,471	134,72743
840,65	97,27633
840,829	99,35699
841,009	91,03433
841,188	-21,32944
841,367	88,95365
841,547	49,41983
841,726	-23,41039
841,905	22,36933
842,085	20,28848
842,264	3,64156
842,443	88,95365
842,622	101,43765
842,801	7,80332
842,981	28,61182
843,16	20,28848
843,339	53,58137
843,518	76,46948
843,697	180,49883
843,876	-54,62524
844,055	28,61182
844,234	86,87297
844,413	30,69265
844,592	24,45016
844,771	11,96506
844,95	57,74289
845,129	-42,13916
845,308	95,19567
845,487	118,08269
845,666	36,93509
845,845	-23,41039
846,024	39,01589
846,202	53,58137
846,381	18,20764
846,56	20,28848
846,739	130,56627
846,918	57,74289
847,096	70,22733
847,275	80,63089
847,454	3,64156
847,633	132,64685
847,811	-15,08662
847,99	128,48569
848,169	-33,81521
848,347	57,74289
848,526	-2,60112
848,704	76,46948
848,883	95,19567
849,062	34,85428
849,24	43,17748
849,419	24,45016
849,597	30,69265
849,776	-13,00569
849,954	22,36933
850,133	118,08269
850,311	18,20764
850,49	99,35699
850,668	16,12678
850,846	32,77347
851,025	1,56067
851,203	-23,41039
851,381	47,33905
851,56	-19,24849
851,738	14,04592
851,916	109,76021
852,095	126,4051
852,273	107,67958
852,451	24,45016
852,629	32,77347
852,807	55,66213
852,986	39,01589
853,164	18,20764
853,342	97,27633
853,52	39,01589
853,698	11,96506
853,876	-13,00569
854,054	113,92146
854,232	103,51829
854,41	45,25827
854,588	74,38877
854,766	16,12678
854,944	32,77347
855,122	24,45016
855,3	36,93509
855,478	5,72244
855,656	80,63089
855,834	30,69265
856,012	55,66213
856,19	-13,00569
856,368	49,41983
856,545	-75,43579
856,723	178,41836
856,901	128,48569
857,079	-8,84385
857,256	34,85428
857,434	-23,41039
857,612	-21,32944
857,79	-33,81521
857,967	26,531
858,145	84,79228
858,323	76,46948
858,5	53,58137
858,678	55,66213
858,855	63,98513
859,033	68,1466
859,211	30,69265
859,388	103,51829
859,566	61,90439
859,743	57,74289
859,921	68,1466
860,098	140,96912
860,276	28,61182
860,453	86,87297
860,63	9,88419
860,808	55,66213
860,985	-15,08662
861,162	-62,9494
861,34	20,28848
861,517	14,04592
861,694	-17,16755
861,872	43,17748
862,049	86,87297
862,226	57,74289
862,403	36,93509
862,581	14,04592
862,758	63,98513
862,935	53,58137
863,112	59,82364
863,289	74,38877
863,467	70,22733
863,644	-62,9494
863,821	3,64156
863,998	72,30805
864,175	113,92146
864,352	45,25827
864,529	140,96912
864,706	-17,16755
864,883	103,51829
865,06	-46,30117
865,237	91,03433
865,414	39,01589
865,591	63,98513
865,768	78,55019
865,944	140,96912
866,121	-31,73424
866,298	78,55019
866,475	82,71159
866,652	145,13023
866,829	1,56067
867,005	30,69265
867,182	-29,65327
867,359	34,85428
867,536	36,93509
867,712	22,36933
867,889	82,71159
868,066	49,41983
868,242	9,88419
868,419	61,90439
868,596	45,25827
868,772	51,5006
868,949	113,92146
869,125	9,88419
869,302	7,80332
869,478	-8,84385
869,655	63,98513
869,831	70,22733
870,008	22,36933
870,184	192,98153
870,361	-23,41039
870,537	-13,00569
870,714	-37,97718
870,89	-46,30117
871,066	59,82364
871,243	134,72743
871,419	-58,78731
871,595	74,38877
871,772	-42,13916
871,948	113,92146
872,124	39,01589
872,3	80,63089
872,477	30,69265
872,653	43,17748
872,829	82,71159
873,005	45,25827
873,181	74,38877
873,357	53,58137
873,533	39,01589
873,71	80,63089
873,886	95,19567
874,062	122,24391
874,238	95,19567
874,414	124,32451
874,59	-46,30117
874,766	86,87297
874,942	153,45238
875,118	-46,30117
875,294	-60,86835
875,47	-25,49134
875,645	-17,16755
875,821	-37,97718
875,997	-13,00569
876,173	20,28848
876,349	-15,08662
876,525	22,36933
876,7	3,64156
876,876	-33,81521
877,052	-0,52022
877,228	39,01589
877,403	-42,13916
877,579	28,61182
877,755	-23,41039
877,931	26,531
878,106	74,38877
878,282	14,04592
878,457	7,80332
878,633	-6,76293
878,809	47,33905
878,984	26,531
879,16	-67,11151
879,335	-19,24849
879,511	-69,19257
879,686	-67,11151
879,862	63,98513
880,037	39,01589
880,213	28,61182
880,388	-0,52022
880,563	93,115
880,739	57,74289
880,914	-29,65327
881,089	-58,78731
881,265	26,531
881,44	39,01589
881,615	5,72244
881,791	66,06587
881,966	80,63089
882,141	-44,22016
882,316	190,9011
882,492	-8,84385
882,667	1,56067
882,842	49,41983
883,017	49,41983
883,192	1,56067
883,367	14,04592
883,542	51,5006
883,718	1,56067
883,893	101,43765
884,068	39,01589
884,243	161,77445
884,418	14,04592
884,593	39,01589
884,768	-2,60112
884,943	41,09669
885,117	74,38877
885,292	82,71159
885,467	61,90439
885,642	49,41983
885,817	134,72743
885,992	84,79228
886,167	151,37185
886,342	145,13023
886,516	72,30805
886,691	18,20764
886,866	-56,70627
887,041	84,79228
887,215	95,19567
887,39	57,74289
887,565	118,08269
887,739	80,63089
887,914	5,72244
888,089	-29,65327
888,263	30,69265
888,438	-81,67905
888,612	140,96912
888,787	11,96506
888,962	-29,65327
889,136	-21,32944
889,311	47,33905
889,485	76,46948
889,659	99,35699
889,834	120,1633
890,008	57,74289
890,183	-4,68203
890,357	-44,22016
890,532	1,56067
890,706	170,09645
890,88	80,63089
891,055	-46,30117
891,229	66,06587
891,403	-6,76293
891,577	49,41983
891,752	-79,59796
891,926	11,96506
892,1	9,88419
892,274	97,27633
892,449	39,01589
892,623	-33,81521
892,797	-4,68203
892,971	39,01589
893,145	91,03433
893,319	-62,9494
893,493	72,30805
893,667	66,06587
893,841	41,09669
894,015	-2,60112
894,189	-42,13916
894,363	132,64685
894,537	-98,32798
894,711	-6,76293
894,885	-79,59796
895,059	-10,92477
895,233	47,33905
895,407	-27,5723
895,581	-2,60112
895,755	-21,32944
895,928	-42,13916
896,102	-8,84385
896,276	66,06587
896,45	32,77347
896,623	49,41983
896,797	-48,38218
896,971	-23,41039
897,145	9,88419
897,318	9,88419
897,492	34,85428
897,666	-19,24849
897,839	1,56067
898,013	-6,76293
898,186	-23,41039
898,36	39,01589
898,534	74,38877
898,707	-94,16572
898,881	39,01589
899,054	-52,54422
899,228	-0,52022
899,401	-15,08662
899,574	32,77347
899,748	-46,30117
899,921	45,25827
900,095	5,72244
900,268	-15,08662
900,441	84,79228
900,615	-0,52022
900,788	-17,16755
900,961	116,00208
901,135	-65,03045
901,308	84,79228
901,481	105,59894
901,654	68,1466
901,828	-23,41039
902,001	72,30805
902,174	14,04592
902,347	32,77347
902,52	72,30805
902,693	-15,08662
902,866	103,51829
903,04	-29,65327
903,213	55,66213
903,386	-21,32944
903,559	72,30805
903,732	3,64156
903,905	28,61182
904,078	-29,65327
904,251	-13,00569
904,424	-46,30117
904,596	41,09669
904,769	24,45016
904,942	-25,49134
905,115	41,09669
905,288	11,96506
905,461	1,56067
905,634	68,1466
905,806	-23,41039
905,979	72,30805
906,152	91,03433
906,325	-40,05817
906,497	47,33905
906,67	72,30805
906,843	-17,16755
907,015	22,36933
907,188	1,56067
907,361	-33,81521
907,533	-0,52022
907,706	18,20764
907,878	116,00208
908,051	-48,38218
908,224	101,43765
908,396	-110,8149
908,569	-19,24849
908,741	-27,5723
908,914	184,65975
909,086	14,04592
909,258	82,71159
909,431	41,09669
909,603	11,96506
909,776	88,95365
909,948	49,41983
910,12	26,531
910,293	59,82364
910,465	53,58137
910,637	24,45016
910,81	59,82364
910,982	22,36933
911,154	-6,76293
911,326	-21,32944
911,498	9,88419
911,671	76,46948
911,843	-25,49134
912,015	-23,41039
912,187	111,84084
912,359	14,04592
912,531	30,69265
912,703	-2,60112
912,875	-56,70627
913,047	3,64156
913,219	16,12678
913,391	-17,16755
913,563	111,84084
913,735	-23,41039
913,907	20,28848
914,079	122,24391
914,251	-2,60112
914,423	-8,84385
914,595	-56,70627
914,767	-8,84385
914,939	149,29131
915,11	53,58137
915,282	-60,86835
915,454	18,20764
915,626	-27,5723
915,797	34,85428
915,969	78,55019
916,141	-112,89607
916,313	88,95365
916,484	74,38877
916,656	72,30805
916,828	41,09669
916,999	-29,65327
917,171	-67,11151
917,342	43,17748
917,514	41,09669
917,685	39,01589
917,857	-100,40912
918,028	-2,60112
918,2	97,27633
918,371	-35,89619
918,543	-37,97718
918,714	-23,41039
918,886	53,58137
919,057	61,90439
919,229	41,09669
919,4	16,12678
919,571	30,69265
919,743	-71,27364
919,914	16,12678
920,085	-10,92477
920,256	-27,5723
920,428	-33,81521
920,599	28,61182
920,77	55,66213
920,941	53,58137
921,113	57,74289
921,284	97,27633
921,455	-37,97718
921,626	41,09669
921,797	11,96506
921,968	18,20764
922,139	120,1633
922,31	32,77347
922,481	22,36933
922,652	107,67958
922,823	-56,70627
922,994	16,12678
923,165	-10,92477
923,336	74,38877
923,507	55,66213
923,678	59,82364
923,849	93,115
924,02	-33,81521
924,191	-48,38218
924,362	-33,81521
924,532	51,5006
924,703	-10,92477
924,874	72,30805
925,045	-6,76293
925,215	34,85428
925,386	-23,41039
925,557	57,74289
925,728	3,64156
925,898	-19,24849
926,069	-10,92477
926,24	63,98513
926,41	-10,92477
926,581	-17,16755
926,751	111,84084
926,922	-87,92236
927,092	-0,52022
927,263	20,28848
927,433	5,72244
927,604	7,80332
927,774	-21,32944
927,945	26,531
928,115	49,41983
928,286	57,74289
928,456	72,30805
928,627	-13,00569
928,797	109,76021
928,967	105,59894
929,138	80,63089
929,308	66,06587
929,478	161,77445
929,648	-69,19257
929,819	111,84084
929,989	49,41983
930,159	134,72743
930,329	28,61182
930,5	-17,16755
930,67	66,06587
930,84	-15,08662
931,01	-15,08662
931,18	24,45016
931,35	-48,38218
931,52	18,20764
931,69	47,33905
931,86	51,5006
932,03	39,01589
932,2	-19,24849
932,37	-69,19257
932,54	74,38877
932,71	9,88419
932,88	7,80332
933,05	32,77347
933,22	-58,78731
933,39	9,88419
933,56	63,98513
933,73	-2,60112
933,899	-27,5723
934,069	93,115
934,239	-6,76293
934,409	-58,78731
934,578	-13,00569
934,748	41,09669
934,918	-6,76293
935,088	76,46948
935,257	-6,76293
935,427	-46,30117
935,596	51,5006
935,766	22,36933
935,936	18,20764
936,105	5,72244
936,275	45,25827
936,444	-35,89619
936,614	45,25827
936,783	18,20764
936,953	57,74289
937,122	-58,78731
937,292	-104,57142
937,461	-13,00569
937,631	-27,5723
937,8	14,04592
937,969	5,72244
938,139	86,87297
938,308	36,93509
938,477	-42,13916
938,647	-67,11151
938,816	45,25827
938,985	7,80332
939,155	61,90439
939,324	43,17748
939,493	-10,92477
939,662	20,28848
939,831	5,72244
940,001	24,45016
940,17	-77,51687
940,339	107,67958
940,508	-4,68203
940,677	70,22733
940,846	5,72244
941,015	-29,65327
941,184	5,72244
941,353	-62,9494
941,522	-92,0846
941,691	32,77347
941,86	41,09669
942,029	165,93546
942,198	20,28848
942,367	-44,22016
942,536	51,5006
942,705	-56,70627
942,873	-44,22016
943,042	-13,00569
943,211	-37,97718
943,38	101,43765
943,549	80,63089
943,717	45,25827
943,886	7,80332
944,055	-37,97718
944,224	-2,60112
944,392	107,67958
944,561	-79,59796
944,73	26,531
944,898	24,45016
945,067	57,74289
945,235	-27,5723
945,404	-46,30117
945,572	105,59894
945,741	51,5006
945,91	39,01589
946,078	-29,65327
946,247	41,09669
946,415	11,96506
946,583	-31,73424
946,752	128,48569
946,92	-13,00569
947,089	22,36933
947,257	-8,84385
947,425	-15,08662
947,594	24,45016
947,762	-8,84385
947,93	-33,81521
948,099	43,17748
948,267	93,115
948,435	-44,22016
948,603	-65,03045
948,772	22,36933
948,94	47,33905
949,108	80,63089
949,276	-21,32944
949,444	30,69265
949,612	-75,43579
949,78	32,77347
949,948	99,35699
950,116	-8,84385
950,285	61,90439
950,453	72,30805
950,621	-15,08662
950,789	-10,92477
950,957	55,66213
951,124	28,61182
951,292	103,51829
951,46	-73,35471
951,628	41,09669
951,796	41,09669
951,964	99,35699
952,132	45,25827
952,3	9,88419
952,467	97,27633
952,635	-31,73424
952,803	-19,24849
952,971	-25,49134
953,138	76,46948
953,306	-13,00569
953,474	97,27633
953,641	3,64156
953,809	-81,67905
953,977	-10,92477
954,144	-54,62524
954,312	16,12678
954,48	57,74289
954,647	118,08269
954,815	136,808
954,982	74,38877
955,15	47,33905
955,317	22,36933
955,485	-10,92477
955,652	66,06587
955,82	55,66213
955,987	82,71159
956,154	20,28848
956,322	-54,62524
956,489	-2,60112
956,656	-112,89607
956,824	-31,73424
956,991	49,41983
957,158	-29,65327
957,326	20,28848
957,493	120,1633
957,66	51,5006
957,827	26,531
957,994	41,09669
958,162	20,28848
958,329	45,25827
958,496	-19,24849
958,663	18,20764
958,83	105,59894
958,997	16,12678
959,164	20,28848
959,331	45,25827
959,498	-40,05817
959,665	11,96506
959,832	-19,24849
959,999	-25,49134
960,166	20,28848
960,333	1,56067
960,5	36,93509
960,667	28,61182
960,834	18,20764
961,001	95,19567
961,168	14,04592
961,334	70,22733
961,501	86,87297
961,668	47,33905
961,835	36,93509
962,002	-37,97718
962,168	-112,89607
962,335	-87,92236
962,502	-17,16755
962,668	-46,30117
962,835	3,64156
963,002	74,38877
963,168	32,77347
963,335	51,5006
963,502	-58,78731
963,668	24,45016
963,835	26,531
964,001	-27,5723
964,168	-94,16572
964,334	-48,38218
964,501	-15,08662
964,667	1,56067
964,834	24,45016
965	-37,97718
965,166	18,20764
965,333	9,88419
965,499	-81,67905
965,665	109,76021
965,832	7,80332
965,998	-23,41039
966,164	30,69265
966,331	68,1466
966,497	18,20764
966,663	-65,03045
966,829	72,30805
966,996	-4,68203
967,162	-23,41039
967,328	-15,08662
967,494	-56,70627
967,66	86,87297
967,826	3,64156
967,992	34,85428
968,158	80,63089
968,324	30,69265
968,491	-0,52022
968,657	11,96506
968,823	76,46948
968,988	-33,81521
969,154	-21,32944
969,32	34,85428
969,486	-83,76015
969,652	9,88419
969,818	72,30805
969,984	-67,11151
970,15	68,1466
970,316	-60,86835
970,481	-10,92477
970,647	95,19567
970,813	26,531
970,979	-10,92477
971,144	70,22733
971,31	61,90439
971,476	11,96506
971,642	1,56067
971,807	82,71159
971,973	-33,81521
972,138	-33,81521
972,304	-50,46319
972,47	-85,84125
972,635	59,82364
972,801	143,04968
972,966	-114,97725
973,132	9,88419
973,297	-4,68203
973,463	-77,51687
973,628	-90,00348
973,794	43,17748
973,959	-31,73424
974,125	20,28848
974,29	-62,9494
974,455	-27,5723
974,621	-56,70627
974,786	251,23185
974,951	20,28848
975,117	99,35699
975,282	-29,65327
975,447	30,69265
975,612	-35,89619
975,778	-25,49134
975,943	-6,76293
976,108	103,51829
976,273	16,12678
976,438	32,77347
976,603	-35,89619
976,768	-23,41039
976,934	-37,97718
977,099	-19,24849
977,264	76,46948
977,429	11,96506
977,594	14,04592
977,759	103,51829
977,924	-112,89607
978,089	-10,92477
978,254	86,87297
978,418	53,58137
978,583	-0,52022
978,748	66,06587
978,913	-13,00569
979,078	91,03433
979,243	61,90439
979,408	105,59894
979,572	-77,51687
979,737	-42,13916
979,902	9,88419
980,067	49,41983
980,231	49,41983
980,396	7,80332
980,561	-27,5723
980,725	93,115
980,89	-15,08662
981,055	1,56067
981,219	-56,70627
981,384	61,90439
981,548	-48,38218
981,713	1,56067
981,877	-15,08662
982,042	26,531
982,206	95,19567
982,371	-35,89619
982,535	-23,41039
982,7	367,72135
982,864	22,36933
983,029	7,80332
983,193	3,64156
983,357	30,69265
983,522	30,69265
983,686	53,58137
983,85	-31,73424
984,015	-83,76015
984,179	-29,65327
984,343	-58,78731
984,507	7,80332
984,672	88,95365
984,836	118,08269
985	28,61182
985,164	-81,67905
985,328	-15,08662
985,492	-29,65327
985,656	109,76021
985,821	-13,00569
985,985	-52,54422
986,149	-48,38218
986,313	28,61182
986,477	-56,70627
986,641	49,41983
986,805	11,96506
986,969	68,1466
987,133	45,25827
987,296	26,531
987,46	-44,22016
987,624	36,93509
987,788	59,82364
987,952	16,12678
988,116	9,88419
988,28	-25,49134
988,443	41,09669
988,607	-52,54422
988,771	-35,89619
988,935	93,115
989,098	68,1466
989,262	26,531
989,426	-37,97718
989,589	41,09669
989,753	-90,00348
989,917	-40,05817
990,08	105,59894
990,244	149,29131
990,407	-31,73424
990,571	-81,67905
990,734	-10,92477
990,898	20,28848
991,061	-10,92477
991,225	51,5006
991,388	26,531
991,552	95,19567
991,715	28,61182
991,878	-42,13916
992,042	43,17748
992,205	39,01589
992,369	-121,22081
992,532	16,12678
992,695	-77,51687
992,858	-19,24849
993,022	95,19567
993,185	-17,16755
993,348	18,20764
993,511	61,90439
993,675	-37,97718
993,838	16,12678
994,001	-48,38218
994,164	55,66213
994,327	3,64156
994,49	-21,32944
994,653	-35,89619
994,816	39,01589
994,979	3,64156
995,142	82,71159
995,305	-4,68203
995,468	-50,46319
995,631	11,96506
995,794	66,06587
995,957	39,01589
996,12	24,45016
996,283	43,17748
996,446	149,29131
996,609	5,72244
996,772	61,90439
996,934	-19,24849
997,097	-15,08662
997,26	30,69265
997,423	-50,46319
997,585	-54,62524
997,748	32,77347
997,911	-19,24849
998,074	86,87297
998,236	34,85428
998,399	-25,49134
998,561	-56,70627
998,724	103,51829
998,887	24,45016
999,049	30,69265
999,212	-35,89619
999,374	-52,54422
999,537	11,96506
999,699	-19,24849
999,862	-58,78731
1000,024	-71,27364
1000,187	-71,27364
1000,349	20,28848
1000,512	-79,59796
1000,674	-35,89619
1000,836	-42,13916
1000,999	86,87297
1001,161	-46,30117
1001,323	45,25827
1001,486	-54,62524
1001,648	59,82364
1001,81	24,45016
1001,972	-37,97718
1002,134	-13,00569
1002,297	28,61182
1002,459	1,56067
1002,621	-69,19257
1002,783	-75,43579
1002,945	-79,59796
1003,107	7,80332
1003,269	18,20764
1003,432	-13,00569
1003,594	-81,67905
1003,756	-67,11151
1003,918	47,33905
1004,08	18,20764
1004,242	-0,52022
1004,404	63,98513
1004,565	43,17748
1004,727	66,06587
1004,889	-2,60112
1005,051	-15,08662
1005,213	145,13023
1005,375	55,66213
1005,537	-31,73424
1005,698	-46,30117
1005,86	22,36933
1006,022	211,70526
1006,184	-42,13916
1006,345	-10,92477
1006,507	-87,92236
1006,669	-54,62524
1006,831	-8,84385
1006,992	43,17748
1007,154	-50,46319
1007,315	-50,46319
1007,477	49,41983
1007,639	1,56067
1007,8	-73,35471
1007,962	1,56067
1008,123	43,17748
1008,285	51,5006
1008,446	18,20764
1008,608	-65,03045
1008,769	122,24391
1008,931	-56,70627
1009,092	-23,41039
1009,253	84,79228
1009,415	68,1466
1009,576	-21,32944
1009,737	30,69265
1009,899	18,20764
1010,06	-65,03045
1010,221	-85,84125
1010,382	53,58137
1010,544	70,22733
1010,705	-44,22016
1010,866	101,43765
1011,027	24,45016
1011,188	41,09669
1011,35	57,74289
1011,511	-0,52022
1011,672	-15,08662
1011,833	43,17748
1011,994	68,1466
1012,155	-40,05817
1012,316	-94,16572
1012,477	-48,38218
1012,638	-15,08662
1012,799	39,01589
1012,96	43,17748
1013,121	53,58137
1013,282	-44,22016
1013,443	118,08269
1013,604	61,90439
1013,765	59,82364
1013,925	53,58137
1014,086	-71,27364
1014,247	18,20764
1014,408	53,58137
1014,569	14,04592
1014,729	-46,30117
1014,89	-17,16755
1015,051	-15,08662
1015,211	-75,43579
1015,372	82,71159
1015,533	32,77347
1015,693	34,85428
1015,854	-27,5723
1016,015	84,79228
1016,175	26,531
1016,336	-15,08662
1016,496	9,88419
1016,657	20,28848
1016,817	109,76021
1016,978	-56,70627
1017,138	51,5006
1017,299	39,01589
1017,459	-46,30117
1017,62	-81,67905
1017,78	43,17748
1017,94	-23,41039
1018,101	41,09669
1018,261	78,55019
1018,421	14,04592
1018,582	122,24391
1018,742	-10,92477
1018,902	-81,67905
1019,062	-0,52022
1019,223	-50,46319
1019,383	3,64156
1019,543	16,12678
1019,703	34,85428
1019,863	-60,86835
1020,023	-23,41039
1020,184	11,96506
1020,344	34,85428
1020,504	-56,70627
1020,664	-21,32944
1020,824	72,30805
1020,984	20,28848
1021,144	-6,76293
1021,304	-69,19257
1021,464	-29,65327
1021,624	7,80332
1021,784	20,28848
1021,943	-19,24849
1022,103	3,64156
1022,263	-17,16755
1022,423	-94,16572
1022,583	-21,32944
1022,743	-21,32944
1022,902	11,96506
1023,062	-31,73424
1023,222	-8,84385
1023,382	24,45016
1023,541	74,38877
1023,701	95,19567
1023,861	-44,22016
1024,02	-31,73424
1024,18	43,17748
1024,34	-69,19257
1024,499	3,64156
1024,659	78,55019
1024,818	-15,08662
1024,978	-23,41039
1025,137	16,12678
1025,297	-0,52022
1025,456	-92,0846
1025,616	5,72244
1025,775	-60,86835
1025,935	101,43765
1026,094	76,46948
1026,254	-2,60112
1026,413	-33,81521
1026,572	11,96506
1026,732	-85,84125
1026,891	30,69265
1027,05	49,41983
1027,21	5,72244
1027,369	-21,32944
1027,528	-50,46319
1027,687	36,93509
1027,846	-48,38218
1028,006	-79,59796
1028,165	53,58137
1028,324	97,27633
1028,483	-21,32944
1028,642	47,33905
1028,801	-0,52022
1028,96	74,38877
1029,119	-21,32944
1029,278	36,93509
1029,437	-33,81521
1029,596	-85,84125
1029,755	-6,76293
1029,914	41,09669
1030,073	-46,30117
1030,232	18,20764
1030,391	-46,30117
1030,55	-2,60112
1030,709	-15,08662
1030,868	-25,49134
1031,026	26,531
1031,185	-67,11151
1031,344	61,90439
1031,503	30,69265
1031,662	26,531
1031,82	5,72244
1031,979	18,20764
1032,138	182,57929
1032,296	45,25827
1032,455	39,01589
1032,614	149,29131
1032,772	22,36933
1032,931	-56,70627
1033,089	7,80332
1033,248	-37,97718
1033,407	-73,35471
1033,565	-8,84385
1033,724	-31,73424
1033,882	22,36933
1034,04	41,09669
1034,199	-48,38218
1034,357	5,72244
1034,516	97,27633
1034,674	-33,81521
1034,832	55,66213
1034,991	47,33905
1035,149	-100,40912
1035,307	-75,43579
1035,466	88,95365
1035,624	-67,11151
1035,782	16,12678
1035,941	63,98513
1036,099	-6,76293
1036,257	-8,84385
1036,415	5,72244
1036,573	9,88419
1036,731	-0,52022
1036,889	9,88419
1037,048	34,85428
1037,206	20,28848
1037,364	-60,86835
1037,522	-106,65258
1037,68	-31,73424
1037,838	59,82364
1037,996	59,82364
1038,154	59,82364
