345,274	-416,45765	
345,493	-416,45765	
345,712	-416,45765	
345,932	-481,00138	
346,151	-10,57795	
346,37	105,94571	
346,59	-39,71133	
346,809	-143,7674	
347,028	-50,11636	
347,247	-43,87333	
347,467	-39,71133	
347,686	-16,82073	
347,905	31,03945	
348,124	85,13906	
348,343	118,42946	
348,563	3,98837	
348,782	80,97767	
349,001	-23,06356	
349,22	91,38111	
349,439	-4,33521	
349,658	-70,92679	
349,877	-23,06356	
350,096	-16,82073	
350,315	-23,06356	
350,534	145,47698	
350,753	24,79697	
350,972	28,95863	
351,191	68,49339	
351,41	37,28189	
351,629	12,31187	
351,848	68,49339	
352,067	-8,49703	
352,286	-25,14452	
352,505	-54,2784	
352,724	-29,30644	
352,943	-162,49887	
353,162	-85,4944	
353,381	-85,4944	
353,599	-33,46838	
353,818	-37,63035	
354,037	8,15013	
354,256	-2,25431	
354,475	-6,41612	
354,693	39,36269	
354,912	16,47359	
355,131	-64,68361	
355,35	10,231	
355,568	3,98837	
355,787	-64,68361	
356,006	35,20108	
356,224	-100,06227	
356,443	187,08695	
356,661	-12,65887	
356,88	49,76662	
357,099	-58,44047	
357,317	-39,71133	
357,536	24,79697	
357,754	-83,4133	
357,973	31,03945	
358,191	-18,90167	
358,41	24,79697	
358,628	-18,90167	
358,847	26,8778	
359,065	-48,03534	
359,284	-73,00786	
359,502	-31,38741	
359,721	-23,06356	
359,939	20,63529	
360,157	58,08968	
360,376	-0,17341	
360,594	-62,60256	
360,813	-79,25111	
361,031	-8,49703	
361,249	51,84739	
361,467	43,52428	
361,686	-95,89999	
361,904	-41,79233	
362,122	-56,35943	
362,341	12,31187	
362,559	78,89697	
362,777	-8,49703	
362,995	93,46178	
363,213	-54,2784	
363,431	-20,98261	
363,65	182,92604	
363,868	-77,17002	
364,086	124,67127	
364,304	-45,95433	
364,522	37,28189	
364,74	26,8778	
364,958	-160,41758	
365,176	-77,17002	
365,394	28,95863	
365,612	-8,49703	
365,83	45,60506	
366,048	10,231	
366,266	18,55444	
366,484	41,44349	
366,702	-85,4944	
366,92	12,31187	
367,138	-87,57551	
367,356	16,47359	
367,574	31,03945	
367,792	35,20108	
368,01	-95,89999	
368,227	224,53426	
368,445	-35,54936	
368,663	122,59067	
368,881	-16,82073	
369,099	-116,71157	
369,316	-2,25431	
369,534	14,39273	
369,752	-18,90167	
369,97	-27,22547	
370,187	-64,68361	
370,405	-31,38741	
370,623	164,20171	
370,84	10,231	
371,058	-60,52151	
371,276	24,79697	
371,493	-25,14452	
371,711	85,13906	
371,928	-66,76466	
372,146	35,20108	
372,364	39,36269	
372,581	76,81627	
372,799	24,79697	
373,016	-14,7398	
373,234	66,41266	
373,451	-60,52151	
373,669	3,98837	
373,886	-23,06356	
374,103	-12,65887	
374,321	60,17043	
374,538	35,20108	
374,756	45,60506	
374,973	-33,46838	
375,19	-75,08894	
375,408	-45,95433	
375,625	-29,30644	
375,842	16,47359	
376,06	26,8778	
376,277	72,65484	
376,494	-75,08894	
376,712	37,28189	
376,929	-77,17002	
377,146	49,76662	
377,363	-2,25431	
377,581	64,33192	
377,798	149,63807	
378,015	-52,19738	
378,232	-89,65662	
378,449	110,10698	
378,666	56,00892	
378,883	14,39273	
379,101	-23,06356	
379,318	-20,98261	
379,535	20,63529	
379,752	164,20171	
379,969	-60,52151	
380,186	37,28189	
380,403	58,08968	
380,62	-20,98261	
380,837	-31,38741	
381,054	97,62311	
381,271	87,21975	
381,488	18,55444	
381,705	-37,63035	
381,921	-45,95433	
382,138	105,94571	
382,355	87,21975	
382,572	-20,98261	
382,789	-45,95433	
383,006	41,44349	
383,223	-10,57795	
383,439	103,86507	
383,656	16,47359	
383,873	-12,65887	
384,09	6,06925	
384,306	6,06925	
384,523	58,08968	
384,74	155,87966	
384,957	95,54245	
385,173	-39,71133	
385,39	14,39273	
385,607	85,13906	
385,823	-64,68361	
386,04	-29,30644	
386,256	-29,30644	
386,473	147,55753	
386,69	-79,25111	
386,906	-75,08894	
387,123	45,60506	
387,339	-70,92679	
387,556	-85,4944	
387,772	-16,82073	
387,989	72,65484	
388,205	-37,63035	
388,422	-20,98261	
388,638	-35,54936	
388,855	122,59067	
389,071	110,10698	
389,287	83,05837	
389,504	-20,98261	
389,72	-43,87333	
389,937	-18,90167	
390,153	-112,54921	
390,369	43,52428	
390,585	-29,30644	
390,802	-10,57795	
391,018	10,231	
391,234	24,79697	
391,451	-70,92679	
391,667	8,15013	
391,883	47,68585	
392,099	45,60506	
392,315	-81,3322	
392,532	-108,38688	
392,748	14,39273	
392,964	-2,25431	
393,18	33,12027	
393,396	-95,89999	
393,612	56,00892	
393,828	-56,35943	
394,044	-39,71133	
394,26	130,91304	
394,477	-33,46838	
394,693	-31,38741	
394,909	-12,65887	
395,125	41,44349	
395,341	89,30043	
395,557	6,06925	
395,772	12,31187	
395,988	174,60416	
396,204	64,33192	
396,42	31,03945	
396,636	1,90748	
396,852	37,28189	
397,068	14,39273	
397,284	26,8778	
397,5	114,26823	
397,715	8,15013	
397,931	-79,25111	
398,147	39,36269	
398,363	20,63529	
398,578	6,06925	
398,794	-39,71133	
399,01	-45,95433	
399,226	64,33192	
399,441	-79,25111	
399,657	-93,81887	
399,873	-20,98261	
400,088	91,38111	
400,304	56,00892	
400,52	99,70377	
400,735	-31,38741	
400,951	78,89697	
401,166	39,36269	
401,382	-2,25431	
401,597	39,36269	
401,813	153,79913	
402,029	70,57411	
402,244	-35,54936	
402,46	143,39644	
402,675	-56,35943	
402,89	103,86507	
403,106	108,02635	
403,321	39,36269	
403,537	-50,11636	
403,752	53,92816	
403,968	-79,25111	
404,183	35,20108	
404,398	6,06925	
404,614	22,71613	
404,829	-16,82073	
405,044	70,57411	
405,26	-0,17341	
405,475	97,62311	
405,69	22,71613	
405,905	-39,71133	
406,121	132,99362	
406,336	39,36269	
406,551	31,03945	
406,766	47,68585	
406,981	112,18761	
407,196	93,46178	
407,412	-64,68361	
407,627	-68,84573	
407,842	89,30043	
408,057	199,56956	
408,272	-50,11636	
408,487	33,12027	
408,702	-43,87333	
408,917	31,03945	
409,132	114,26823	
409,347	-10,57795	
409,562	-27,22547	
409,777	-18,90167	
409,992	101,78442	
410,207	-39,71133	
410,422	97,62311	
410,637	22,71613	
410,852	-131,27998	
411,067	70,57411	
411,282	-158,33629	
411,496	-39,71133	
411,711	-10,57795	
411,926	116,34885	
412,141	66,41266	
412,356	31,03945	
412,571	-41,79233	
412,785	-10,57795	
413	10,231	
413,215	76,81627	
413,429	101,78442	
413,644	43,52428	
413,859	-89,65662	
414,074	-37,63035	
414,288	45,60506	
414,503	-62,60256	
414,718	8,15013	
414,932	33,12027	
415,147	3,98837	
415,361	-25,14452	
415,576	87,21975	
415,79	-52,19738	
416,005	-6,41612	
416,22	28,95863	
416,434	39,36269	
416,649	-87,57551	
416,863	14,39273	
417,077	-4,33521	
417,292	20,63529	
417,506	259,89974	
417,721	-108,38688	
417,935	164,20171	
418,15	-33,46838	
418,364	20,63529	
418,578	20,63529	
418,793	-31,38741	
419,007	18,55444	
419,221	-14,7398	
419,436	-75,08894	
419,65	58,08968	
419,864	3,98837	
420,078	53,92816	
420,293	66,41266	
420,507	14,39273	
420,721	56,00892	
420,935	-20,98261	
421,149	-37,63035	
421,364	-73,00786	
421,578	47,68585	
421,792	-35,54936	
422,006	-4,33521	
422,22	24,79697	
422,434	49,76662	
422,648	-118,79275	
422,862	139,23532	
423,076	-0,17341	
423,29	-43,87333	
423,504	-102,14341	
423,718	101,78442	
423,932	26,8778	
424,146	-10,57795	
424,36	-10,57795	
424,574	160,04069	
424,788	132,99362	
425,002	3,98837	
425,216	97,62311	
425,43	-60,52151	
425,644	74,73555	
425,858	-110,46804	
426,071	-25,14452	
426,285	22,71613	
426,499	89,30043	
426,713	68,49339	
426,927	76,81627	
427,14	-31,38741	
427,354	230,77532	
427,568	-56,35943	
427,782	145,47698	
427,995	-29,30644	
428,209	103,86507	
428,423	97,62311	
428,636	-83,4133	
428,85	-45,95433	
429,063	33,12027	
429,277	120,51007	
429,491	-81,3322	
429,704	89,30043	
429,918	16,47359	
430,131	51,84739	
430,345	24,79697	
430,558	-120,87395	
430,772	-23,06356	
430,985	18,55444	
431,199	87,21975	
431,412	-35,54936	
431,626	-91,73774	
431,839	-58,44047	
432,053	66,41266	
432,266	-29,30644	
432,479	68,49339	
432,693	47,68585	
432,906	1,90748	
433,119	-43,87333	
433,333	-33,46838	
433,546	112,18761	
433,759	26,8778	
433,973	16,47359	
434,186	76,81627	
434,399	18,55444	
434,612	74,73555	
434,825	153,79913	
435,039	-6,41612	
435,252	-25,14452	
435,465	187,08695	
435,678	-193,71896	
435,891	-12,65887	
436,104	33,12027	
436,318	47,68585	
436,531	-0,17341	
436,744	-14,7398	
436,957	-0,17341	
437,17	-60,52151	
437,383	68,49339	
437,596	-48,03534	
437,809	-66,76466	
438,022	35,20108	
438,235	-23,06356	
438,448	124,67127	
438,661	103,86507	
438,874	35,20108	
439,086	37,28189	
439,299	153,79913	
439,512	160,04069	
439,725	95,54245	
439,938	62,25118	
440,151	-29,30644	
440,364	-41,79233	
440,576	74,73555	
440,789	-16,82073	
441,002	3,98837	
441,215	-50,11636	
441,427	-27,22547	
441,64	51,84739	
441,853	60,17043	
442,066	-12,65887	
442,278	-43,87333	
442,491	1,90748	
442,704	78,89697	
442,916	28,95863	
443,129	203,73039	
443,341	85,13906	
443,554	-62,60256	
443,767	33,12027	
443,979	62,25118	
444,192	78,89697	
444,404	45,60506	
444,617	45,60506	
444,829	68,49339	
445,042	99,70377	
445,254	33,12027	
445,467	-116,71157	
445,679	174,60416	
445,892	28,95863	
446,104	43,52428	
446,316	-64,68361	
446,529	-18,90167	
446,741	39,36269	
446,953	41,44349	
447,166	-120,87395	
447,378	45,60506	
447,59	56,00892	
447,803	18,55444	
448,015	85,13906	
448,227	37,28189	
448,439	-66,76466	
448,652	-39,71133	
448,864	95,54245	
449,076	141,31588	
449,288	45,60506	
449,5	26,8778	
449,712	-33,46838	
449,925	108,02635	
450,137	72,65484	
450,349	-79,25111	
450,561	66,41266	
450,773	-10,57795	
450,985	6,06925	
451,197	39,36269	
451,409	-33,46838	
451,621	89,30043	
451,833	89,30043	
452,045	64,33192	
452,257	-6,41612	
452,469	-6,41612	
452,681	-97,98113	
452,893	-52,19738	
453,105	189,16739	
453,317	62,25118	
453,529	-54,2784	
453,74	12,31187	
453,952	-131,27998	
454,164	143,39644	
454,376	-29,30644	
454,588	24,79697	
454,799	-41,79233	
455,011	33,12027	
455,223	-87,57551	
455,435	-20,98261	
455,646	31,03945	
455,858	-81,3322	
456,07	51,84739	
456,281	12,31187	
456,493	128,83245	
456,705	68,49339	
456,916	-116,71157	
457,128	58,08968	
457,34	-41,79233	
457,551	91,38111	
457,763	99,70377	
457,974	-48,03534	
458,186	22,71613	
458,397	-10,57795	
458,609	43,52428	
458,82	26,8778	
459,032	-4,33521	
459,243	147,55753	
459,455	97,62311	
459,666	-75,08894	
459,878	66,41266	
460,089	91,38111	
460,3	-64,68361	
460,512	-23,06356	
460,723	68,49339	
460,934	80,97767	
461,146	126,75187	
461,357	320,22592	
461,568	33,12027	
461,78	132,99362	
461,991	64,33192	
462,202	37,28189	
462,413	87,21975	
462,625	39,36269	
462,836	-39,71133	
463,047	18,55444	
463,258	3,98837	
463,469	-33,46838	
463,68	-68,84573	
463,891	-0,17341	
464,103	8,15013	
464,314	16,47359	
464,525	76,81627	
464,736	110,10698	
464,947	89,30043	
465,158	72,65484	
465,369	-27,22547	
465,58	-91,73774	
465,791	45,60506	
466,002	-6,41612	
466,213	-73,00786	
466,424	-93,81887	
466,635	-2,25431	
466,846	99,70377	
467,056	-33,46838	
467,267	45,60506	
467,478	10,231	
467,689	-64,68361	
467,9	-10,57795	
468,111	-68,84573	
468,322	41,44349	
468,532	16,47359	
468,743	-4,33521	
468,954	201,64997	
469,165	-27,22547	
469,375	14,39273	
469,586	68,49339	
469,797	99,70377	
470,007	8,15013	
470,218	-114,63039	
470,429	-35,54936	
470,639	199,56956	
470,85	-68,84573	
471,061	-35,54936	
471,271	-100,06227	
471,482	31,03945	
471,692	101,78442	
471,903	-60,52151	
472,113	6,06925	
472,324	64,33192	
472,534	89,30043	
472,745	-0,17341	
472,955	-77,17002	
473,166	76,81627	
473,376	56,00892	
473,587	47,68585	
473,797	-106,30572	
474,007	22,71613	
474,218	-12,65887	
474,428	76,81627	
474,638	51,84739	
474,849	37,28189	
475,059	-6,41612	
475,269	37,28189	
475,48	8,15013	
475,69	20,63529	
475,9	37,28189	
476,11	-29,30644	
476,321	141,31588	
476,531	85,13906	
476,741	45,60506	
476,951	-41,79233	
477,161	128,83245	
477,371	-6,41612	
477,581	37,28189	
477,792	-150,01117	
478,002	93,46178	
478,212	53,92816	
478,422	-29,30644	
478,632	12,31187	
478,842	31,03945	
479,052	-54,2784	
479,262	74,73555	
479,472	95,54245	
479,682	62,25118	
479,892	-23,06356	
480,102	49,76662	
480,312	-56,35943	
480,522	70,57411	
480,731	16,47359	
480,941	108,02635	
481,151	-31,38741	
481,361	53,92816	
481,571	-129,19876	
481,781	76,81627	
481,991	10,231	
482,2	58,08968	
482,41	-8,49703	
482,62	70,57411	
482,83	178,76511	
483,039	-25,14452	
483,249	-64,68361	
483,459	147,55753	
483,668	87,21975	
483,878	-33,46838	
484,088	-52,19738	
484,297	28,95863	
484,507	56,00892	
484,716	24,79697	
484,926	18,55444	
485,136	-14,7398	
485,345	103,86507	
485,555	-10,57795	
485,764	-81,3322	
485,974	83,05837	
486,183	141,31588	
486,393	112,18761	
486,602	26,8778	
486,812	41,44349	
487,021	31,03945	
487,23	18,55444	
487,44	-58,44047	
487,649	-4,33521	
487,859	185,00649	
488,068	-68,84573	
488,277	24,79697	
488,487	-60,52151	
488,696	-45,95433	
488,905	-45,95433	
489,115	18,55444	
489,324	-81,3322	
489,533	-64,68361	
489,742	91,38111	
489,951	-0,17341	
490,161	33,12027	
490,37	-29,30644	
490,579	-66,76466	
490,788	85,13906	
490,997	-131,27998	
491,206	89,30043	
491,415	12,31187	
491,625	-2,25431	
491,834	-12,65887	
492,043	153,79913	
492,252	-18,90167	
492,461	12,31187	
492,67	-6,41612	
492,879	149,63807	
493,088	-41,79233	
493,297	405,50796	
493,506	-50,11636	
493,715	249,49827	
493,924	-48,03534	
494,132	126,75187	
494,341	39,36269	
494,55	147,55753	
494,759	139,23532	
494,968	66,41266	
495,177	70,57411	
495,386	56,00892	
495,594	26,8778	
495,803	93,46178	
496,012	-6,41612	
496,221	33,12027	
496,429	56,00892	
496,638	137,15476	
496,847	70,57411	
497,055	-29,30644	
497,264	1,90748	
497,473	76,81627	
497,681	141,31588	
497,89	141,31588	
498,099	-12,65887	
498,307	-79,25111	
498,516	141,31588	
498,724	-43,87333	
498,933	-56,35943	
499,141	-16,82073	
499,35	49,76662	
499,558	118,42946	
499,767	31,03945	
499,975	112,18761	
500,184	-60,52151	
500,392	-23,06356	
500,601	116,34885	
500,809	47,68585	
501,018	-41,79233	
501,226	-6,41612	
501,434	-50,11636	
501,643	31,03945	
501,851	85,13906	
502,059	-97,98113	
502,268	157,96018	
502,476	47,68585	
502,684	-64,68361	
502,892	216,21277	
503,101	12,31187	
503,309	31,03945	
503,517	1,90748	
503,725	-29,30644	
503,933	-81,3322	
504,141	-37,63035	
504,35	60,17043	
504,558	33,12027	
504,766	-41,79233	
504,974	166,28221	
505,182	49,76662	
505,39	20,63529	
505,598	-27,22547	
505,806	80,97767	
506,014	51,84739	
506,222	68,49339	
506,43	-12,65887	
506,638	230,77532	
506,846	60,17043	
507,054	49,76662	
507,262	-4,33521	
507,47	103,86507	
507,678	-68,84573	
507,886	8,15013	
508,094	47,68585	
508,301	170,44319	
508,509	16,47359	
508,717	-31,38741	
508,925	60,17043	
509,133	39,36269	
509,34	-16,82073	
509,548	39,36269	
509,756	-70,92679	
509,964	83,05837	
510,171	143,39644	
510,379	10,231	
510,587	60,17043	
510,794	-16,82073	
511,002	-43,87333	
511,21	66,41266	
511,417	-62,60256	
511,625	49,76662	
511,832	-10,57795	
512,04	-73,00786	
512,247	51,84739	
512,455	-66,76466	
512,663	172,52368	
512,87	22,71613	
513,078	145,47698	
513,285	83,05837	
513,492	18,55444	
513,7	1,90748	
513,907	-2,25431	
514,115	-16,82073	
514,322	47,68585	
514,529	-70,92679	
514,737	-41,79233	
514,944	10,231	
515,152	-18,90167	
515,359	6,06925	
515,566	66,41266	
515,773	-35,54936	
515,981	-25,14452	
516,188	-73,00786	
516,395	51,84739	
516,602	1,90748	
516,81	56,00892	
517,017	-48,03534	
517,224	116,34885	
517,431	-16,82073	
517,638	16,47359	
517,845	51,84739	
518,053	216,21277	
518,26	-97,98113	
518,467	10,231	
518,674	31,03945	
518,881	8,15013	
519,088	39,36269	
519,295	28,95863	
519,502	83,05837	
519,709	-143,7674	
519,916	43,52428	
520,123	105,94571	
520,33	53,92816	
520,537	43,52428	
520,744	-77,17002	
520,95	207,8912	
521,157	-2,25431	
521,364	132,99362	
521,571	-37,63035	
521,778	56,00892	
521,985	68,49339	
522,191	-27,22547	
522,398	-77,17002	
522,605	-62,60256	
522,812	-52,19738	
523,019	12,31187	
523,225	-172,90544	
523,432	189,16739	
523,639	41,44349	
523,845	130,91304	
524,052	-12,65887	
524,259	-62,60256	
524,465	-81,3322	
524,672	-39,71133	
524,878	6,06925	
525,085	-95,89999	
525,292	-70,92679	
525,498	83,05837	
525,705	174,60416	
525,911	-64,68361	
526,118	8,15013	
526,324	103,86507	
526,531	97,62311	
526,737	130,91304	
526,944	-12,65887	
527,15	35,20108	
527,356	28,95863	
527,563	130,91304	
527,769	-39,71133	
527,975	-29,30644	
528,182	24,79697	
528,388	74,73555	
528,594	122,59067	
528,801	-16,82073	
529,007	-50,11636	
529,213	101,78442	
529,42	56,00892	
529,626	-6,41612	
529,832	60,17043	
530,038	-106,30572	
530,244	-50,11636	
530,451	-39,71133	
530,657	-45,95433	
530,863	33,12027	
531,069	49,76662	
531,275	-106,30572	
531,481	78,89697	
531,687	-83,4133	
531,893	-2,25431	
532,099	-27,22547	
532,305	-29,30644	
532,511	-70,92679	
532,717	68,49339	
532,923	-10,57795	
533,129	39,36269	
533,335	62,25118	
533,541	162,1212	
533,747	-8,49703	
533,953	-14,7398	
534,159	-27,22547	
534,365	53,92816	
534,571	99,70377	
534,777	-2,25431	
534,982	112,18761	
535,188	-64,68361	
535,394	87,21975	
535,6	6,06925	
535,806	26,8778	
536,011	33,12027	
536,217	120,51007	
536,423	-16,82073	
536,628	14,39273	
536,834	-166,66148	
537,04	-43,87333	
537,245	-50,11636	
537,451	31,03945	
537,657	64,33192	
537,862	35,20108	
538,068	-60,52151	
538,273	51,84739	
538,479	110,10698	
538,685	114,26823	
538,89	66,41266	
539,096	72,65484	
539,301	-79,25111	
539,507	37,28189	
539,712	80,97767	
539,917	14,39273	
540,123	239,09668	
540,328	62,25118	
540,534	108,02635	
540,739	72,65484	
540,944	64,33192	
541,15	76,81627	
541,355	41,44349	
541,56	76,81627	
541,766	101,78442	
541,971	-23,06356	
542,176	-145,84865	
542,382	89,30043	
542,587	-29,30644	
542,792	16,47359	
542,997	-29,30644	
543,202	20,63529	
543,408	-85,4944	
543,613	24,79697	
543,818	72,65484	
544,023	-33,46838	
544,228	20,63529	
544,433	14,39273	
544,638	-35,54936	
544,843	97,62311	
545,049	-6,41612	
545,254	-20,98261	
545,459	31,03945	
545,664	39,36269	
545,869	143,39644	
546,074	99,70377	
546,279	62,25118	
546,483	-68,84573	
546,688	-56,35943	
546,893	-25,14452	
547,098	68,49339	
547,303	-25,14452	
547,508	-60,52151	
547,713	78,89697	
547,918	1,90748	
548,122	-116,71157	
548,327	39,36269	
548,532	76,81627	
548,737	24,79697	
548,942	45,60506	
549,146	43,52428	
549,351	105,94571	
549,556	24,79697	
549,76	-18,90167	
549,965	37,28189	
550,17	-66,76466	
550,374	35,20108	
550,579	43,52428	
550,784	97,62311	
550,988	-33,46838	
551,193	-27,22547	
551,397	-50,11636	
551,602	58,08968	
551,806	22,71613	
552,011	110,10698	
552,215	51,84739	
552,42	-52,19738	
552,624	76,81627	
552,829	80,97767	
553,033	-45,95433	
553,238	3,98837	
553,442	39,36269	
553,646	12,31187	
553,851	-14,7398	
554,055	124,67127	
554,26	-25,14452	
554,464	164,20171	
554,668	145,47698	
554,872	174,60416	
555,077	301,50443	
555,281	376,38814	
555,485	363,90794	
555,69	457,50541	
555,894	542,7751	
556,098	694,57835	
556,302	702,89566	
556,506	763,19416	
556,71	763,19416	
556,915	844,27964	
557,119	952,38376	
557,323	956,54138	
557,527	1029,29726	
557,731	1249,61384	
557,935	1243,37907	
558,139	1293,25626	
558,343	1299,49075	
558,547	1573,77471	
558,751	1430,40716	
558,955	1413,78369	
559,159	1604,93923	
559,363	1717,12472	
559,567	1679,73074	
559,771	1548,84249	
559,975	1565,46403	
560,179	1478,19831	
560,382	1675,57578	
560,586	1727,51173	
560,79	1521,83199	
560,994	1571,69704	
561,198	1536,37618	
561,402	1584,16297	
561,605	1420,01752	
561,809	1399,23795	
562,013	1536,37618	
562,217	1490,66524	
562,42	1380,53602	
562,624	1552,99789	
562,828	1459,49766	
563,031	1399,23795	
563,235	1372,22395	
563,439	1361,83378	
563,642	1378,45801	
563,846	1322,35026	
564,049	1326,50648	
564,253	1353,52157	
564,456	1407,54983	
564,66	1374,30197	
564,863	1257,92681	
565,067	1363,91182	
565,27	1232,98771	
565,474	1347,28738	
565,677	1218,43965	
565,881	1380,53602	
566,084	1241,30081	
566,288	1272,47437	
566,491	1295,33442	
566,694	1255,84858	
566,898	1270,39616	
567,101	1434,56299	
567,304	1274,55257	
567,508	1220,51795	
567,711	1307,80335	
567,914	1253,77034	
568,118	1230,90943	
568,321	1268,31794	
568,524	1420,01752	
568,727	1401,31593	
568,93	1361,83378	
569,134	1166,4807	
569,337	1172,71591	
569,54	1370,14592	
569,743	1318,19402	
569,946	1245,45733	
570,149	1363,91182	
570,352	1345,20931	
570,555	1245,45733	
570,758	1297,41259	
570,962	1316,11589	
571,165	1311,95963	
571,368	1174,7943	
571,571	1469,88695	
571,774	1336,89698	
571,976	1301,56891	
572,179	1474,04264	
572,382	1438,71881	
572,585	1365,98986	
572,788	1274,55257	
572,991	1476,12048	
573,194	1363,91182	
573,397	1345,20931	
573,6	1330,66269	
573,802	1430,40716	
574,005	1434,56299	
574,208	1440,79671	
574,411	1382,61403	
574,613	1440,79671	
574,816	1461,57553	
575,019	1401,31593	
575,222	1459,49766	
575,424	1405,47186	
575,627	1484,4318	
575,83	1561,30866	
576,032	1596,62877	
576,235	1484,4318	
576,438	1557,15329	
576,64	1455,34192	
576,843	1623,63755	
577,045	1573,77471	
577,248	1559,23098	
577,45	1604,93923	
577,653	1528,06523	
577,855	1696,35043	
578,058	1688,04061	
578,26	1609,09444	
578,463	1536,37618	
578,665	1802,29555	
578,868	1627,79269	
579,07	1607,01684	
579,272	1712,96989	
579,475	1648,56818	
579,677	1690,11807	
579,879	1764,90422	
580,082	1609,09444	
580,284	1602,86162	
580,486	1675,57578	
580,689	1683,88568	
580,891	1712,96989	
581,093	1725,43434	
581,295	1839,68572	
581,498	1833,45411	
581,7	1804,37282	
581,902	1602,86162	
582,104	1688,04061	
582,306	1887,46037	
582,508	1733,7439	
582,71	1877,07474	
582,913	1947,69531	
583,115	1856,30321	
583,317	1885,38325	
583,519	1929,00203	
583,721	1739,97603	
583,923	1870,84332	
584,125	1858,38038	
584,327	2034,92687	
584,529	1914,46261	
584,731	1978,85015	
584,933	2005,85037	
585,135	2007,92728	
585,336	1831,3769	
585,538	2057,77221	
585,74	2122,15227	
585,942	2086,84749	
586,144	2012,0811	
586,346	2120,07555	
586,547	2136,68925	
586,749	1991,31186	
586,951	1943,54127	
587,153	2022,46559	
587,355	2001,69653	
587,556	2205,21841	
587,758	2099,30812	
587,96	2084,77071	
588,161	2115,92209	
588,363	2113,84536	
588,565	2111,76862	
588,766	2244,67289	
588,968	2043,23431	
589,17	2228,06063	
589,371	2269,59088	
589,573	2080,61713	
589,774	2201,06523	
589,976	2155,37939	
590,177	2196,91204	
590,379	2284,12614	
590,58	2144,99601	
590,782	2184,45239	
590,983	2398,32596	
591,185	2277,89676	
591,386	2371,33421	
591,587	2333,96006	
591,789	2209,37157	
591,99	2269,59088	
592,192	2412,85975	
592,393	2265,43791	
592,594	2155,37939	
592,796	2437,77442	
592,997	2263,36143	
593,198	2352,64727	
593,399	2402,47849	
593,601	2390,02087	
593,802	2473,06937	
594,003	2518,74374	
594,204	2421,16469	
594,405	2549,88442	
594,607	2323,57815	
594,808	2539,50428	
595,009	2516,66767	
595,21	2468,91708	
595,411	2458,53628	
595,612	2431,5458	
595,813	2493,83065	
596,014	2616,31534	
596,215	2686,89443	
596,416	2666,13627	
596,617	2585,17628	
596,818	2574,79642	
597,019	2624,61897	
597,22	2771,99934	
597,421	2670,28793	
597,622	2599,70794	
597,823	2641,22605	
598,024	2670,28793	
598,225	2643,30192	
598,426	2630,84665	
598,627	2786,52889	
598,827	2774,075	
599,028	2659,90876	
599,229	2852,94759	
599,43	2705,57648	
599,63	2817,66308	
599,831	2815,58749	
600,032	2807,2851	
600,233	2888,23113	
600,433	2763,69667	
600,634	2745,01547	
600,835	2628,77076	
601,035	2628,77076	
601,236	2792,75579	
601,437	2771,99934	
601,637	2668,2121	
601,838	2784,45325	
602,038	2788,60453	
602,239	2666,13627	
602,439	2796,90704	
602,64	2637,0743	
602,841	2649,52951	
603,041	2497,98287	
603,241	2653,68122	
603,442	2576,8724	
603,642	2564,41648	
603,843	2541,58032	
604,043	2522,89588	
604,244	2477,22166	
604,444	2508,36335	
604,644	2427,39337	
604,845	2524,97194	
605,045	2385,8683	
605,245	2446,0792	
605,446	2487,6023	
605,646	2632,92253	
605,846	2462,68861	
606,046	2392,09715	
606,247	2323,57815	
606,447	2398,32596	
606,647	2263,36143	
606,847	2252,97894	
607,047	2421,16469	
607,248	2348,49458	
607,448	2365,10526	
607,648	2165,76268	
607,848	2030,77312	
608,048	2174,06925	
608,248	2161,60938	
608,448	2302,81409	
608,648	2095,15459	
608,848	2182,37577	
609,048	2061,92586	
609,248	2039,0806	
609,448	2088,92427	
609,648	2201,06523	
609,848	2070,23313	
610,048	2047,38802	
610,248	1999,6196	
610,448	1978,85015	
610,648	1926,92498	
610,847	2014,15801	
611,047	1937,31019	
611,247	1870,84332	
611,447	1856,30321	
611,647	1781,52274	
611,846	1854,22603	
612,046	1773,21351	
612,246	1823,06801	
612,446	1833,45411	
612,645	1646,49065	
612,845	1752,44019	
613,045	1729,58912	
613,244	1721,27954	
613,444	1783,60003	
613,644	1818,91355	
613,843	1665,18831	
614,043	1665,18831	
614,243	1386,77003	
614,442	1658,95579	
614,642	1636,10293	
614,841	1592,47352	
615,041	1604,93923	
615,24	1623,63755	
615,44	1675,57578	
615,639	1739,97603	
615,839	1584,16297	
616,038	1669,34331	
616,237	1609,09444	
616,437	1534,29845	
616,636	1467,8091	
616,836	1580,00768	
617,035	1511,44317	
617,234	1488,58743	
617,434	1688,04061	
617,633	1501,05425	
617,832	1710,89247	
618,032	1557,15329	
618,231	1644,41311	
618,43	1648,56818	
618,629	1517,67647	
618,828	1490,66524	
619,028	1663,11081	
619,227	1544,68707	
619,426	1447,0304	
619,625	1471,9648	
619,824	1567,5417	
620,023	1386,77003	
620,222	1349,36545	
620,422	1386,77003	
620,621	1415,86164	
620,82	1417,93958	
621,019	1420,01752	
621,218	1363,91182	
621,417	1203,89139	
621,616	1280,78717	
621,815	1201,81305	
622,014	1295,33442	
622,213	1232,98771	
622,411	1278,70897	
622,61	1228,83114	
622,809	1272,47437	
623,008	1299,49075	
623,207	1380,53602	
623,406	1328,58459	
623,605	1178,95107	
623,803	1087,49841	
624,002	1268,31794	
624,201	1253,77034	
624,4	1208,04805	
624,598	1212,2047	
624,797	1287,02173	
624,996	1289,09991	
625,195	1058,39823	
625,393	960,699	
625,592	1020,98255	
625,791	1137,38263	
625,989	1133,2257	
626,188	1172,71591	
626,386	1168,55911	
626,585	1129,06875	
626,784	1095,81261	
626,982	1002,27423	
627,181	1029,29726	
627,379	1097,89115	
627,578	1050,08375	
627,776	1000,19551	
627,975	1255,84858	
628,173	1108,28378	
628,371	1020,98255	
628,57	1135,30416	
628,768	1081,26272	
628,967	1154,0102	
629,165	1193,49966	
629,363	1054,241	
629,562	1164,4023	
629,76	971,09296	
629,958	1108,28378	
630,157	998,11678	
630,355	1108,28378	
630,553	1149,85333	
630,751	1004,35295	
630,95	1064,63405	
631,148	933,67422	
631,346	1118,67631	
631,544	935,75308	
631,742	1075,027	
631,94	1050,08375	
632,139	956,54138	
632,337	1035,53325	
632,535	919,12214	
632,733	1006,43166	
632,931	1064,63405	
633,129	979,40805	
633,327	960,699	
633,525	1010,58908	
633,723	1099,96968	
633,921	1016,82518	
634,119	929,5165	
634,317	898,33309	
634,515	960,699	
634,713	956,54138	
634,91	1068,79124	
635,108	1025,13992	
635,306	1145,69644	
635,504	960,699	
635,702	1129,06875	
635,9	923,2799	
636,097	1143,618	
636,295	1083,34129	
636,493	1023,06124	
636,691	941,98961	
636,888	1058,39823	
637,086	1118,67631	
637,284	948,22611	
637,482	979,40805	
637,679	1197,65636	
637,877	1039,69055	
638,075	948,22611	
638,272	933,67422	
638,47	937,83193	
638,667	879,6226	
638,865	958,62019	
639,062	1149,85333	
639,26	1072,94842	
639,457	1058,39823	
639,655	1075,027	
639,852	969,01417	
640,05	973,17174	
640,247	1008,51037	
640,445	1060,47684	
640,642	1048,00512	
640,84	1168,55911	
641,037	1016,82518	
641,234	1085,41985	
641,432	890,01736	
641,629	987,72308	
641,826	1097,89115	
642,024	939,91077	
642,221	1060,47684	
642,418	941,98961	
642,615	896,25416	
642,813	975,25051	
643,01	1108,28378	
643,207	1243,37907	
643,404	931,59537	
643,602	1025,13992	
643,799	852,59574	
643,996	1002,27423	
644,193	1039,69055	
644,39	979,40805	
644,587	985,64433	
644,784	1093,73406	
644,981	935,75308	
645,178	1016,82518	
645,375	1041,7692	
645,572	1097,89115	
645,769	1064,63405	
645,966	1031,37593	
646,163	1023,06124	
646,36	877,54363	
646,557	1112,44081	
646,754	1112,44081	
646,951	1025,13992	
647,148	1041,7692	
647,345	1052,16237	
647,542	1070,86983	
647,738	1170,63751	
647,935	919,12214	
648,132	1135,30416	
648,329	1006,43166	
648,526	1070,86983	
648,722	1079,18415	
648,919	1052,16237	
649,116	1214,28302	
649,312	987,72308	
649,509	1116,59782	
649,706	983,56558	
649,902	1006,43166	
650,099	1120,75481	
650,296	1062,55545	
650,492	1010,58908	
650,689	948,22611	
650,885	917,04325	
651,082	1133,2257	
651,278	1124,91179	
651,475	998,11678	
651,671	1062,55545	
651,868	964,85659	
652,064	1131,14723	
652,261	977,32928	
652,457	1004,35295	
652,654	1008,51037	
652,85	946,14728	
653,047	962,7778	
653,243	939,91077	
653,439	1091,65552	
653,636	977,32928	
653,832	1075,027	
654,028	1037,6119	
654,224	900,41201	
654,421	1081,26272	
654,617	881,70156	
654,813	1048,00512	
655,009	925,35877	
655,206	914,96436	
655,402	800,61902	
655,598	946,14728	
655,794	1045,92648	
655,99	1039,69055	
656,186	879,6226	
656,383	860,91177	
656,579	788,14422	
656,775	875,46466	
656,971	788,14422	
657,167	912,88547	
657,363	736,16425	
657,559	763,19416	
657,755	956,54138	
657,951	912,88547	
658,147	912,88547	
658,343	806,85637	
658,539	800,61902	
658,735	771,51092	
658,93	875,46466	
659,126	904,56985	
659,322	896,25416	
659,518	877,54363	
659,714	838,04252	
659,91	765,27336	
660,105	684,1816	
660,301	704,97498	
660,497	902,49093	
660,693	921,20102	
660,888	892,0963	
661,084	815,17277	
661,28	821,41002	
661,476	852,59574	
661,671	684,1816	
661,867	827,64724	
662,062	750,71891	
662,258	846,35867	
662,454	727,8472	
662,649	794,38164	
662,845	898,33309	
663,04	652,99073	
663,236	796,46077	
663,431	698,73701	
663,627	603,08329	
663,822	767,35255	
664,018	544,85476	
664,213	750,71891	
664,409	534,45644	
664,604	802,69814	
664,799	632,19627	
664,995	673,78475	
665,19	732,00573	
665,386	707,0543	
665,581	528,2174	
665,776	584,36736	
665,972	655,07015	
666,167	596,84469	
666,362	517,8189	
666,557	590,60604	
666,753	644,673	
666,948	467,90456	
667,143	700,81634	
667,338	736,16425	
667,533	613,48088	
667,728	628,03733	
667,924	677,94351	
668,119	698,73701	
668,314	507,42029	
668,509	526,13771	
668,704	578,12863	
668,899	644,673	
669,094	513,65947	
669,289	538,61578	
669,484	482,46317	
669,679	553,17333	
669,874	640,51411	
670,069	497,02157	
670,264	492,86205	
670,459	580,20821	
670,654	519,89861	
670,849	534,45644	
671,043	555,25296	
671,238	453,34572	
671,433	472,06418	
671,628	536,53611	
671,823	457,50541	
672,018	459,58525	
672,212	603,08329	
672,407	534,45644	
672,602	399,26807	
672,797	492,86205	
672,991	648,83187	
673,186	390,94816	
673,381	590,60604	
673,575	630,1168	
673,77	582,28779	
673,965	422,14745	
674,159	467,90456	
674,354	451,26586	
674,548	551,0937	
674,743	559,41222	
674,937	546,93441	
675,132	544,85476	
675,326	503,26082	
675,521	436,70677	
675,715	449,18601	
675,91	372,22809	
676,104	490,78228	
676,299	424,22737	
676,493	461,66508	
676,687	322,30606	
676,882	555,25296	
677,076	384,70818	
677,271	347,26741	
677,465	403,428	
677,659	305,66479	
677,853	426,30728	
678,048	270,30109	
678,242	434,62688	
678,436	457,50541	
678,63	338,94704	
678,825	374,30812	
679,019	453,34572	
679,213	307,74497	
679,407	259,89974	
679,601	501,18107	
679,795	338,94704	
679,99	349,34749	
680,184	247,41796	
680,378	382,62818	
680,572	494,94181	
680,766	413,82774	
680,96	293,18364	
681,154	343,10723	
681,348	709,13361	
681,542	395,10813	
681,736	239,09668	
681,93	440,86653	
682,124	457,50541	
682,317	303,58461	
682,511	332,70671	
682,705	239,09668	
682,899	338,94704	
683,093	330,62659	
683,287	382,62818	
683,481	326,46633	
683,674	405,50796	
683,868	293,18364	
684,062	234,93601	
684,256	347,26741	
684,449	449,18601	
684,643	376,38814	
684,837	390,94816	
685,03	378,46816	
685,224	239,09668	
685,418	376,38814	
685,611	316,06562	
685,805	451,26586	
685,999	424,22737	
686,192	197,48913	
686,386	316,06562	
686,579	280,70232	
686,773	311,9053	
686,966	318,14577	
687,16	372,22809	
687,353	234,93601	
687,547	501,18107	
687,74	257,81945	
687,934	261,98002	
688,127	322,30606	
688,32	303,58461	
688,514	278,62208	
688,707	322,30606	
688,9	445,02628	
689,094	451,26586	
689,287	207,8912	
689,48	266,14056	
689,674	322,30606	
689,867	299,42424	
690,06	249,49827	
690,253	214,13238	
690,447	309,82514	
690,64	363,90794	
690,833	301,50443	
691,026	472,06418	
691,219	472,06418	
691,412	270,30109	
691,605	384,70818	
691,799	303,58461	
691,992	226,61462	
692,185	243,25733	
692,378	357,66778	
692,571	257,81945	
692,764	295,26384	
692,957	270,30109	
693,15	386,78818	
693,343	151,7186	
693,536	259,89974	
693,729	207,8912	
693,921	365,98798	
694,114	253,65887	
694,307	245,33765	
694,5	270,30109	
694,693	305,66479	
694,886	226,61462	
695,079	182,92604	
695,271	174,60416	
695,464	195,40871	
695,657	276,54184	
695,85	282,78255	
696,042	222,45389	
696,235	259,89974	
696,428	212,05199	
696,62	124,67127	
696,813	405,50796	
697,006	293,18364	
697,198	257,81945	
697,391	274,46159	
697,584	268,22083	
697,776	135,07419	
697,969	282,78255	
698,161	264,06029	
698,354	218,29315	
698,546	174,60416	
698,739	266,14056	
698,931	338,94704	
699,124	126,75187	
699,316	382,62818	
699,509	201,64997	
699,701	209,9716	
699,893	264,06029	
700,086	195,40871	
700,278	338,94704	
700,47	320,22592	
700,663	299,42424	
700,855	176,68464	
701,047	141,31588	
701,24	185,00649	
701,432	162,1212	
701,624	243,25733	
701,816	278,62208	
702,008	322,30606	
702,201	78,89697	
702,393	266,14056	
702,585	178,76511	
702,777	286,943	
702,969	218,29315	
703,161	324,3862	
703,353	172,52368	
703,546	270,30109	
703,738	191,24784	
703,93	237,01635	
704,122	201,64997	
704,314	301,50443	
704,506	224,53426	
704,698	239,09668	
704,89	157,96018	
705,082	191,24784	
705,273	157,96018	
705,465	155,87966	
705,657	326,46633	
705,849	122,59067	
706,041	234,93601	
706,233	164,20171	
706,425	51,84739	
706,616	224,53426	
706,808	313,98546	
707	162,1212	
707,192	189,16739	
707,383	124,67127	
707,575	313,98546	
707,767	234,93601	
707,959	353,50764	
708,15	180,84558	
708,342	251,57857	
708,534	338,94704	
708,725	132,99362	
708,917	357,66778	
709,108	230,77532	
709,3	162,1212	
709,491	68,49339	
709,683	218,29315	
709,875	289,02322	
710,066	384,70818	
710,258	216,21277	
710,449	224,53426	
710,64	149,63807	
710,832	413,82774	
711,023	253,65887	
711,215	318,14577	
711,406	326,46633	
711,597	193,32827	
711,789	205,8108	
711,98	141,31588	
712,171	282,78255	
712,363	178,76511	
712,554	253,65887	
712,745	164,20171	
712,937	234,93601	
713,128	272,38134	
713,319	270,30109	
713,51	132,99362	
713,701	222,45389	
713,893	207,8912	
714,084	255,73916	
714,275	153,79913	
714,466	222,45389	
714,657	135,07419	
714,848	130,91304	
715,039	201,64997	
715,23	157,96018	
715,421	230,77532	
715,612	207,8912	
715,803	301,50443	
715,994	49,76662	
716,185	338,94704	
716,376	180,84558	
716,567	239,09668	
716,758	224,53426	
716,949	135,07419	
717,14	268,22083	
717,331	164,20171	
717,522	230,77532	
717,712	139,23532	
717,903	220,37352	
718,094	174,60416	
718,285	276,54184	
718,476	264,06029	
718,666	110,10698	
718,857	157,96018	
719,048	147,55753	
719,238	207,8912	
719,429	289,02322	
719,62	103,86507	
719,81	80,97767	
720,001	205,8108	
720,192	243,25733	
720,382	243,25733	
720,573	91,38111	
720,763	85,13906	
720,954	10,231	
721,144	149,63807	
721,335	390,94816	
721,525	68,49339	
721,716	191,24784	
721,906	166,28221	
722,097	172,52368	
722,287	185,00649	
722,478	74,73555	
722,668	80,97767	
722,858	239,09668	
723,049	313,98546	
723,239	70,57411	
723,429	64,33192	
723,62	135,07419	
723,81	230,77532	
724	68,49339	
724,191	137,15476	
724,381	160,04069	
724,571	174,60416	
724,761	226,61462	
724,951	120,51007	
725,142	95,54245	
725,332	53,92816	
725,522	64,33192	
725,712	170,44319	
725,902	62,25118	
726,092	-12,65887	
726,282	191,24784	
726,472	122,59067	
726,662	137,15476	
726,852	145,47698	
727,042	116,34885	
727,232	43,52428	
727,422	139,23532	
727,612	320,22592	
727,802	182,92604	
727,992	130,91304	
728,182	191,24784	
728,372	35,20108	
728,562	91,38111	
728,752	72,65484	
728,942	118,42946	
729,131	126,75187	
729,321	207,8912	
729,511	243,25733	
729,701	147,55753	
729,89	203,73039	
730,08	112,18761	
730,27	130,91304	
730,46	58,08968	
730,649	14,39273	
730,839	87,21975	
731,029	58,08968	
731,218	-48,03534	
731,408	60,17043	
731,597	56,00892	
731,787	83,05837	
731,977	264,06029	
732,166	37,28189	
732,356	132,99362	
732,545	64,33192	
732,735	160,04069	
732,924	76,81627	
733,114	62,25118	
733,303	39,36269	
733,492	85,13906	
733,682	78,89697	
733,871	-0,17341	
734,061	74,73555	
734,25	168,3627	
734,439	78,89697	
734,629	33,12027	
734,818	105,94571	
735,007	164,20171	
735,197	-20,98261	
735,386	74,73555	
735,575	1,90748	
735,764	51,84739	
735,954	97,62311	
736,143	74,73555	
736,332	147,55753	
736,521	195,40871	
736,71	70,57411	
736,899	18,55444	
737,088	89,30043	
737,278	14,39273	
737,467	74,73555	
737,656	-12,65887	
737,845	195,40871	
738,034	93,46178	
738,223	56,00892	
738,412	209,9716	
738,601	24,79697	
738,79	78,89697	
738,979	24,79697	
739,168	-18,90167	
739,356	91,38111	
739,545	151,7186	
739,734	66,41266	
739,923	-23,06356	
740,112	60,17043	
740,301	214,13238	
740,489	174,60416	
740,678	-43,87333	
740,867	157,96018	
741,056	132,99362	
741,245	105,94571	
741,433	80,97767	
741,622	56,00892	
741,811	72,65484	
741,999	272,38134	
742,188	39,36269	
742,377	97,62311	
742,565	151,7186	
742,754	139,23532	
742,942	6,06925	
743,131	47,68585	
743,319	126,75187	
743,508	-41,79233	
743,697	189,16739	
743,885	101,78442	
744,073	64,33192	
744,262	-104,22456	
744,45	110,10698	
744,639	64,33192	
744,827	-16,82073	
745,016	218,29315	
745,204	112,18761	
745,392	62,25118	
745,581	135,07419	
745,769	10,231	
745,957	37,28189	
746,146	70,57411	
746,334	20,63529	
746,522	-12,65887	
746,71	116,34885	
746,899	137,15476	
747,087	103,86507	
747,275	66,41266	
747,463	-108,38688	
747,651	126,75187	
747,84	-4,33521	
748,028	45,60506	
748,216	10,231	
748,404	6,06925	
748,592	153,79913	
748,78	62,25118	
748,968	49,76662	
749,156	20,63529	
749,344	14,39273	
749,532	99,70377	
749,72	103,86507	
749,908	35,20108	
750,096	-45,95433	
750,284	126,75187	
750,472	135,07419	
750,66	220,37352	
750,847	166,28221	
751,035	195,40871	
751,223	87,21975	
751,411	137,15476	
751,599	116,34885	
751,787	-14,7398	
751,974	16,47359	
752,162	91,38111	
752,35	20,63529	
752,537	89,30043	
752,725	53,92816	
752,913	-31,38741	
753,101	143,39644	
753,288	103,86507	
753,476	89,30043	
753,663	78,89697	
753,851	95,54245	
754,039	49,76662	
754,226	-41,79233	
754,414	176,68464	
754,601	70,57411	
754,789	3,98837	
754,976	6,06925	
755,164	60,17043	
755,351	-95,89999	
755,539	108,02635	
755,726	74,73555	
755,913	18,55444	
756,101	108,02635	
756,288	-45,95433	
756,476	193,32827	
756,663	160,04069	
756,85	58,08968	
757,037	185,00649	
757,225	-75,08894	
757,412	-95,89999	
757,599	-75,08894	
757,787	459,58525	
757,974	-45,95433	
758,161	160,04069	
758,348	91,38111	
758,535	193,32827	
758,722	116,34885	
758,91	-41,79233	
759,097	-50,11636	
759,284	18,55444	
759,471	12,31187	
759,658	-14,7398	
759,845	64,33192	
760,032	126,75187	
760,219	53,92816	
760,406	24,79697	
760,593	87,21975	
760,78	164,20171	
760,967	-41,79233	
761,154	95,54245	
761,341	31,03945	
761,528	24,79697	
761,715	39,36269	
761,901	64,33192	
762,088	-29,30644	
762,275	-93,81887	
762,462	64,33192	
762,649	160,04069	
762,835	-10,57795	
763,022	45,60506	
763,209	-52,19738	
763,396	39,36269	
763,582	74,73555	
763,769	56,00892	
763,956	16,47359	
764,142	35,20108	
764,329	10,231	
764,516	110,10698	
764,702	201,64997	
764,889	39,36269	
765,075	-37,63035	
765,262	20,63529	
765,448	37,28189	
765,635	45,60506	
765,821	-27,22547	
766,008	3,98837	
766,194	99,70377	
766,381	70,57411	
766,567	78,89697	
766,754	168,3627	
766,94	112,18761	
767,127	-18,90167	
767,313	-33,46838	
767,499	62,25118	
767,686	149,63807	
767,872	170,44319	
768,058	-6,41612	
768,244	72,65484	
768,431	-16,82073	
768,617	14,39273	
768,803	103,86507	
768,989	49,76662	
769,176	1,90748	
769,362	101,78442	
769,548	89,30043	
769,734	-12,65887	
769,92	6,06925	
770,106	3,98837	
770,292	108,02635	
770,478	6,06925	
770,664	78,89697	
770,851	-27,22547	
771,037	-112,54921	
771,223	22,71613	
771,409	-18,90167	
771,594	45,60506	
771,78	76,81627	
771,966	266,14056	
772,152	-64,68361	
772,338	51,84739	
772,524	132,99362	
772,71	-8,49703	
772,896	105,94571	
773,082	-12,65887	
773,267	33,12027	
773,453	-14,7398	
773,639	43,52428	
773,825	-147,92991	
774,011	24,79697	
774,196	39,36269	
774,382	41,44349	
774,568	-12,65887	
774,753	78,89697	
774,939	85,13906	
775,125	56,00892	
775,31	89,30043	
775,496	-29,30644	
775,681	103,86507	
775,867	-0,17341	
776,053	60,17043	
776,238	-39,71133	
776,424	53,92816	
776,609	-70,92679	
776,795	-43,87333	
776,98	58,08968	
777,166	-0,17341	
777,351	-12,65887	
777,536	-0,17341	
777,722	-89,65662	
777,907	-10,57795	
778,093	56,00892	
778,278	-25,14452	
778,463	56,00892	
778,649	99,70377	
778,834	114,26823	
779,019	-43,87333	
779,204	22,71613	
779,39	189,16739	
779,575	118,42946	
779,76	122,59067	
779,945	143,39644	
780,13	10,231	
780,316	51,84739	
780,501	-100,06227	
780,686	1,90748	
780,871	-41,79233	
781,056	33,12027	
781,241	74,73555	
781,426	114,26823	
781,611	-87,57551	
781,796	-43,87333	
781,981	39,36269	
782,166	-23,06356	
782,351	122,59067	
782,536	28,95863	
782,721	1,90748	
782,906	-6,41612	
783,091	-129,19876	
783,276	-6,41612	
783,461	128,83245	
783,646	116,34885	
783,83	28,95863	
784,015	74,73555	
784,2	-29,30644	
784,385	166,28221	
784,57	64,33192	
784,754	187,08695	
784,939	-2,25431	
785,124	87,21975	
785,308	31,03945	
785,493	-131,27998	
785,678	-0,17341	
785,862	-6,41612	
786,047	78,89697	
786,232	60,17043	
786,416	-12,65887	
786,601	-2,25431	
786,785	12,31187	
786,97	-0,17341	
787,154	112,18761	
787,339	128,83245	
787,523	185,00649	
787,708	8,15013	
787,892	26,8778	
788,077	91,38111	
788,261	-83,4133	
788,446	132,99362	
788,63	51,84739	
788,814	20,63529	
788,999	43,52428	
789,183	39,36269	
789,367	-18,90167	
789,552	-0,17341	
789,736	199,56956	
789,92	-33,46838	
790,104	168,3627	
790,289	-10,57795	
790,473	-48,03534	
790,657	6,06925	
790,841	60,17043	
791,025	132,99362	
791,21	14,39273	
791,394	-12,65887	
791,578	39,36269	
791,762	74,73555	
791,946	-6,41612	
792,13	-77,17002	
792,314	95,54245	
792,498	14,39273	
792,682	6,06925	
792,866	116,34885	
793,05	31,03945	
793,234	74,73555	
793,418	155,87966	
793,602	89,30043	
793,786	18,55444	
793,97	218,29315	
794,153	47,68585	
794,337	-56,35943	
794,521	64,33192	
794,705	-41,79233	
794,889	74,73555	
795,073	47,68585	
795,256	37,28189	
795,44	101,78442	
795,624	60,17043	
795,807	1,90748	
795,991	18,55444	
796,175	20,63529	
796,358	124,67127	
796,542	141,31588	
796,726	137,15476	
796,909	-116,71157	
797,093	45,60506	
797,277	-48,03534	
797,46	51,84739	
797,644	70,57411	
797,827	-2,25431	
798,011	-83,4133	
798,194	-12,65887	
798,378	45,60506	
798,561	74,73555	
798,744	76,81627	
798,928	39,36269	
799,111	-12,65887	
799,295	83,05837	
799,478	14,39273	
799,661	-8,49703	
799,845	-23,06356	
800,028	45,60506	
800,211	26,8778	
800,395	114,26823	
800,578	-85,4944	
800,761	-29,30644	
800,944	20,63529	
801,127	-58,44047	
801,311	-156,255	
801,494	-35,54936	
801,677	20,63529	
801,86	-58,44047	
802,043	14,39273	
802,226	120,51007	
802,409	47,68585	
802,593	45,60506	
802,776	-56,35943	
802,959	114,26823	
803,142	-16,82073	
803,325	-10,57795	
803,508	20,63529	
803,691	191,24784	
803,874	-52,19738	
804,056	122,59067	
804,239	-85,4944	
804,422	166,28221	
804,605	-18,90167	
804,788	10,231	
804,971	122,59067	
805,154	-23,06356	
805,336	68,49339	
805,519	-10,57795	
805,702	-0,17341	
805,885	-77,17002	
806,068	53,92816	
806,25	62,25118	
806,433	-114,63039	
806,616	-2,25431	
806,798	-6,41612	
806,981	87,21975	
807,164	49,76662	
807,346	91,38111	
807,529	-110,46804	
807,711	37,28189	
807,894	-4,33521	
808,076	-27,22547	
808,259	-31,38741	
808,442	-48,03534	
808,624	53,92816	
808,806	66,41266	
808,989	1,90748	
809,171	16,47359	
809,354	-4,33521	
809,536	103,86507	
809,719	47,68585	
809,901	24,79697	
810,083	89,30043	
810,266	33,12027	
810,448	49,76662	
810,63	-52,19738	
810,813	201,64997	
810,995	26,8778	
811,177	10,231	
811,359	114,26823	
811,542	189,16739	
811,724	149,63807	
811,906	8,15013	
812,088	-104,22456	
812,27	-31,38741	
812,452	-48,03534	
812,634	105,94571	
812,817	-43,87333	
812,999	53,92816	
813,181	-8,49703	
813,363	8,15013	
813,545	-6,41612	
813,727	-164,58018	
813,909	-33,46838	
814,091	-2,25431	
814,273	68,49339	
814,455	12,31187	
814,637	-45,95433	
814,818	80,97767	
815	39,36269	
815,182	8,15013	
815,364	-58,44047	
815,546	74,73555	
815,728	139,23532	
815,909	-81,3322	
816,091	89,30043	
816,273	56,00892	
816,455	197,48913	
816,636	89,30043	
816,818	49,76662	
817	85,13906	
817,182	10,231	
817,363	101,78442	
817,545	101,78442	
817,726	97,62311	
817,908	78,89697	
818,09	-108,38688	
818,271	87,21975	
818,453	33,12027	
818,634	97,62311	
818,816	-8,49703	
818,997	14,39273	
819,179	16,47359	
819,36	43,52428	
819,542	-14,7398	
819,723	110,10698	
819,905	-2,25431	
820,086	76,81627	
820,267	12,31187	
820,449	-33,46838	
820,63	-29,30644	
820,811	-14,7398	
820,993	108,02635	
821,174	424,22737	
821,355	22,71613	
821,536	-70,92679	
821,718	33,12027	
821,899	-73,00786	
822,08	-52,19738	
822,261	22,71613	
822,442	-66,76466	
822,624	10,231	
822,805	-33,46838	
822,986	-14,7398	
823,167	26,8778	
823,348	-118,79275	
823,529	8,15013	
823,71	39,36269	
823,891	66,41266	
824,072	28,95863	
824,253	-23,06356	
824,434	43,52428	
824,615	168,3627	
824,796	51,84739	
824,977	70,57411	
825,158	74,73555	
825,339	-0,17341	
825,52	-8,49703	
825,7	70,57411	
825,881	-8,49703	
826,062	-2,25431	
826,243	68,49339	
826,424	14,39273	
826,604	66,41266	
826,785	-6,41612	
826,966	114,26823	
827,147	-29,30644	
827,327	101,78442	
827,508	-27,22547	
827,689	33,12027	
827,869	-56,35943	
828,05	-25,14452	
828,231	16,47359	
828,411	64,33192	
828,592	-48,03534	
828,772	87,21975	
828,953	-89,65662	
829,133	22,71613	
829,314	64,33192	
829,494	8,15013	
829,675	-0,17341	
829,855	3,98837	
830,036	60,17043	
830,216	101,78442	
830,396	-56,35943	
830,577	151,7186	
830,757	-12,65887	
830,938	-95,89999	
831,118	74,73555	
831,298	28,95863	
831,479	20,63529	
831,659	8,15013	
831,839	-29,30644	
832,019	135,07419	
832,199	53,92816	
832,38	-50,11636	
832,56	-52,19738	
832,74	-25,14452	
832,92	157,96018	
833,1	-0,17341	
833,28	-77,17002	
833,461	122,59067	
833,641	-56,35943	
833,821	6,06925	
834,001	-68,84573	
834,181	239,09668	
834,361	1,90748	
834,541	3,98837	
834,721	35,20108	
834,901	-23,06356	
835,081	-2,25431	
835,261	-4,33521	
835,44	-45,95433	
835,62	62,25118	
835,8	70,57411	
835,98	135,07419	
836,16	49,76662	
836,34	66,41266	
836,52	-33,46838	
836,699	-50,11636	
836,879	95,54245	
837,059	76,81627	
837,239	-39,71133	
837,418	-172,90544	
837,598	31,03945	
837,778	53,92816	
837,957	-137,52366	
838,137	-0,17341	
838,317	-25,14452	
838,496	-35,54936	
838,676	-16,82073	
838,855	-145,84865	
839,035	31,03945	
839,214	-6,41612	
839,394	26,8778	
839,573	-18,90167	
839,753	112,18761	
839,932	151,7186	
840,112	-41,79233	
840,291	49,76662	
840,471	31,03945	
840,65	12,31187	
840,829	41,44349	
841,009	155,87966	
841,188	56,00892	
841,367	-14,7398	
841,547	8,15013	
841,726	-73,00786	
841,905	1,90748	
842,085	10,231	
842,264	8,15013	
842,443	14,39273	
842,622	128,83245	
842,801	-41,79233	
842,981	53,92816	
843,16	-2,25431	
843,339	10,231	
843,518	95,54245	
843,697	-31,38741	
843,876	-95,89999	
844,055	51,84739	
844,234	49,76662	
844,413	-0,17341	
844,592	16,47359	
844,771	-70,92679	
844,95	45,60506	
845,129	-10,57795	
845,308	114,26823	
845,487	10,231	
845,666	-25,14452	
845,845	20,63529	
846,024	-35,54936	
846,202	64,33192	
846,381	-8,49703	
846,56	-31,38741	
846,739	78,89697	
846,918	-35,54936	
847,096	-35,54936	
847,275	97,62311	
847,454	3,98837	
847,633	132,99362	
847,811	126,75187	
847,99	110,10698	
848,169	-77,17002	
848,347	33,12027	
848,526	-35,54936	
848,704	58,08968	
848,883	141,31588	
849,062	-23,06356	
849,24	72,65484	
849,419	-23,06356	
849,597	10,231	
849,776	-85,4944	
849,954	-33,46838	
850,133	35,20108	
850,311	24,79697	
850,49	74,73555	
850,668	80,97767	
850,846	18,55444	
851,025	-33,46838	
851,203	-27,22547	
851,381	14,39273	
851,56	-39,71133	
851,738	16,47359	
851,916	-14,7398	
852,095	143,39644	
852,273	97,62311	
852,451	124,67127	
852,629	1,90748	
852,807	95,54245	
852,986	74,73555	
853,164	-6,41612	
853,342	64,33192	
853,52	145,47698	
853,698	62,25118	
853,876	-102,14341	
854,054	128,83245	
854,232	85,13906	
854,41	170,44319	
854,588	-8,49703	
854,766	14,39273	
854,944	103,86507	
855,122	-20,98261	
855,3	74,73555	
855,478	31,03945	
855,656	209,9716	
855,834	-0,17341	
856,012	-62,60256	
856,19	35,20108	
856,368	-2,25431	
856,545	-95,89999	
856,723	6,06925	
856,901	220,37352	
857,079	-37,63035	
857,256	-43,87333	
857,434	-66,76466	
857,612	-31,38741	
857,79	-104,22456	
857,967	28,95863	
858,145	26,8778	
858,323	197,48913	
858,5	33,12027	
858,678	8,15013	
858,855	-37,63035	
859,033	116,34885	
859,211	-31,38741	
859,388	31,03945	
859,566	-39,71133	
859,743	-29,30644	
859,921	147,55753	
860,098	53,92816	
860,276	35,20108	
860,453	62,25118	
860,63	33,12027	
860,808	6,06925	
860,985	70,57411	
861,162	-37,63035	
861,34	-0,17341	
861,517	10,231	
861,694	47,68585	
861,872	8,15013	
862,049	28,95863	
862,226	-60,52151	
862,403	-41,79233	
862,581	-102,14341	
862,758	-77,17002	
862,935	70,57411	
863,112	56,00892	
863,289	-43,87333	
863,467	97,62311	
863,644	-39,71133	
863,821	70,57411	
863,998	10,231	
864,175	143,39644	
864,352	6,06925	
864,529	157,96018	
864,706	8,15013	
864,883	103,86507	
865,06	-50,11636	
865,237	101,78442	
865,414	-73,00786	
865,591	31,03945	
865,768	-20,98261	
865,944	151,7186	
866,121	95,54245	
866,298	145,47698	
866,475	56,00892	
866,652	45,60506	
866,829	-33,46838	
867,005	-79,25111	
867,182	-45,95433	
867,359	47,68585	
867,536	91,38111	
867,712	6,06925	
867,889	91,38111	
868,066	45,60506	
868,242	31,03945	
868,419	6,06925	
868,596	-35,54936	
868,772	-2,25431	
868,949	28,95863	
869,125	80,97767	
869,302	1,90748	
869,478	-31,38741	
869,655	118,42946	
869,831	45,60506	
870,008	-2,25431	
870,184	212,05199	
870,361	-91,73774	
870,537	28,95863	
870,714	41,44349	
870,89	-152,09244	
871,066	95,54245	
871,243	118,42946	
871,419	-33,46838	
871,595	-10,57795	
871,772	-39,71133	
871,948	-33,46838	
872,124	-4,33521	
872,3	-31,38741	
872,477	72,65484	
872,653	95,54245	
872,829	97,62311	
873,005	-37,63035	
873,181	74,73555	
873,357	35,20108	
873,533	16,47359	
873,71	151,7186	
873,886	91,38111	
874,062	68,49339	
874,238	74,73555	
874,414	80,97767	
874,59	-41,79233	
874,766	68,49339	
874,942	212,05199	
875,118	89,30043	
875,294	-97,98113	
875,47	-43,87333	
875,645	20,63529	
875,821	-145,84865	
875,997	-27,22547	
876,173	-79,25111	
876,349	-14,7398	
876,525	-29,30644	
876,7	-58,44047	
876,876	97,62311	
877,052	74,73555	
877,228	124,67127	
877,403	-41,79233	
877,579	-2,25431	
877,755	-10,57795	
877,931	31,03945	
878,106	14,39273	
878,282	-64,68361	
878,457	-2,25431	
878,633	-43,87333	
878,809	-2,25431	
878,984	-6,41612	
879,16	-79,25111	
879,335	-110,46804	
879,511	-10,57795	
879,686	-181,23078	
879,862	153,79913	
880,037	-4,33521	
880,213	-64,68361	
880,388	-10,57795	
880,563	74,73555	
880,739	132,99362	
880,914	49,76662	
881,089	62,25118	
881,265	35,20108	
881,44	1,90748	
881,615	-39,71133	
881,791	-31,38741	
881,966	70,57411	
882,141	-66,76466	
882,316	37,28189	
882,492	28,95863	
882,667	116,34885	
882,842	-0,17341	
883,017	-35,54936	
883,192	-45,95433	
883,367	108,02635	
883,542	18,55444	
883,718	-52,19738	
883,893	56,00892	
884,068	-45,95433	
884,243	-27,22547	
884,418	-8,49703	
884,593	22,71613	
884,768	76,81627	
884,943	24,79697	
885,117	-27,22547	
885,292	72,65484	
885,467	143,39644	
885,642	3,98837	
885,817	101,78442	
885,992	105,94571	
886,167	259,89974	
886,342	78,89697	
886,516	45,60506	
886,691	132,99362	
886,866	64,33192	
887,041	91,38111	
887,215	95,54245	
887,39	-16,82073	
887,565	31,03945	
887,739	35,20108	
887,914	26,8778	
888,089	-154,17372	
888,263	10,231	
888,438	64,33192	
888,612	141,31588	
888,787	3,98837	
888,962	12,31187	
889,136	116,34885	
889,311	-27,22547	
889,485	6,06925	
889,659	-0,17341	
889,834	66,41266	
890,008	26,8778	
890,183	-39,71133	
890,357	-110,46804	
890,532	-35,54936	
890,706	147,55753	
890,88	-0,17341	
891,055	-33,46838	
891,229	160,04069	
891,403	35,20108	
891,577	60,17043	
891,752	-60,52151	
891,926	22,71613	
892,1	-4,33521	
892,274	124,67127	
892,449	-91,73774	
892,623	-73,00786	
892,797	97,62311	
892,971	62,25118	
893,145	-18,90167	
893,319	-77,17002	
893,493	20,63529	
893,667	51,84739	
893,841	108,02635	
894,015	-102,14341	
894,189	18,55444	
894,363	-25,14452	
894,537	-75,08894	
894,711	1,90748	
894,885	-23,06356	
895,059	-66,76466	
895,233	-10,57795	
895,407	-52,19738	
895,581	74,73555	
895,755	-75,08894	
895,928	-114,63039	
896,102	-31,38741	
896,276	43,52428	
896,45	-6,41612	
896,623	-73,00786	
896,797	-91,73774	
896,971	-0,17341	
897,145	20,63529	
897,318	28,95863	
897,492	66,41266	
897,666	-81,3322	
897,839	-68,84573	
898,013	-12,65887	
898,186	-70,92679	
898,36	-73,00786	
898,534	37,28189	
898,707	-43,87333	
898,881	45,60506	
899,054	-133,3612	
899,228	-100,06227	
899,401	-29,30644	
899,574	76,81627	
899,748	-25,14452	
899,921	-60,52151	
900,095	-35,54936	
900,268	37,28189	
900,441	178,76511	
900,615	64,33192	
900,788	-68,84573	
900,961	18,55444	
901,135	-8,49703	
901,308	62,25118	
901,481	-23,06356	
901,654	-18,90167	
901,828	-33,46838	
902,001	1,90748	
902,174	-83,4133	
902,347	-120,87395	
902,52	147,55753	
902,693	-31,38741	
902,866	66,41266	
903,04	-48,03534	
903,213	-20,98261	
903,386	-27,22547	
903,559	78,89697	
903,732	-35,54936	
903,905	41,44349	
904,078	-91,73774	
904,251	-18,90167	
904,424	37,28189	
904,596	-43,87333	
904,769	18,55444	
904,942	18,55444	
905,115	14,39273	
905,288	-62,60256	
905,461	-48,03534	
905,634	8,15013	
905,806	-20,98261	
905,979	-81,3322	
906,152	33,12027	
906,325	24,79697	
906,497	-2,25431	
906,67	83,05837	
906,843	33,12027	
907,015	-89,65662	
907,188	43,52428	
907,361	-81,3322	
907,533	22,71613	
907,706	-156,255	
907,878	24,79697	
908,051	-87,57551	
908,224	33,12027	
908,396	-48,03534	
908,569	-0,17341	
908,741	-56,35943	
908,914	162,1212	
909,086	43,52428	
909,258	-45,95433	
909,431	-23,06356	
909,603	-20,98261	
909,776	128,83245	
909,948	12,31187	
910,12	166,28221	
910,293	58,08968	
910,465	95,54245	
910,637	-70,92679	
910,81	74,73555	
910,982	-10,57795	
911,154	-43,87333	
911,326	-75,08894	
911,498	-70,92679	
911,671	22,71613	
911,843	-143,7674	
912,015	-43,87333	
912,187	6,06925	
912,359	33,12027	
912,531	-35,54936	
912,703	1,90748	
912,875	-118,79275	
913,047	1,90748	
913,219	143,39644	
913,391	-122,95514	
913,563	20,63529	
913,735	35,20108	
913,907	141,31588	
914,079	74,73555	
914,251	-104,22456	
914,423	33,12027	
914,595	12,31187	
914,767	-43,87333	
914,939	39,36269	
915,11	-12,65887	
915,282	-10,57795	
915,454	3,98837	
915,626	18,55444	
915,797	-2,25431	
915,969	37,28189	
916,141	-122,95514	
916,313	62,25118	
916,484	149,63807	
916,656	-73,00786	
916,828	-58,44047	
916,999	137,15476	
917,171	-133,3612	
917,342	-6,41612	
917,514	120,51007	
917,685	80,97767	
917,857	-91,73774	
918,028	68,49339	
918,2	-54,2784	
918,371	-16,82073	
918,543	6,06925	
918,714	-164,58018	
918,886	28,95863	
919,057	-70,92679	
919,229	-35,54936	
919,4	-31,38741	
919,571	45,60506	
919,743	-79,25111	
919,914	12,31187	
920,085	-60,52151	
920,256	-33,46838	
920,428	37,28189	
920,599	74,73555	
920,77	-16,82073	
920,941	39,36269	
921,113	122,59067	
921,284	103,86507	
921,455	35,20108	
921,626	-10,57795	
921,797	-48,03534	
921,968	97,62311	
922,139	53,92816	
922,31	-75,08894	
922,481	-14,7398	
922,652	132,99362	
922,823	-35,54936	
922,994	49,76662	
923,165	1,90748	
923,336	-4,33521	
923,507	97,62311	
923,678	176,68464	
923,849	-18,90167	
924,02	-75,08894	
924,191	-104,22456	
924,362	-73,00786	
924,532	12,31187	
924,703	-18,90167	
924,874	-97,98113	
925,045	-16,82073	
925,215	-91,73774	
925,386	28,95863	
925,557	1,90748	
925,728	-16,82073	
925,898	-60,52151	
926,069	14,39273	
926,24	58,08968	
926,41	-0,17341	
926,581	26,8778	
926,751	39,36269	
926,922	31,03945	
927,092	-18,90167	
927,263	-73,00786	
927,433	45,60506	
927,604	-18,90167	
927,774	-64,68361	
927,945	1,90748	
928,115	157,96018	
928,286	83,05837	
928,456	122,59067	
928,627	45,60506	
928,797	83,05837	
928,967	51,84739	
929,138	60,17043	
929,308	122,59067	
929,478	162,1212	
929,648	56,00892	
929,819	58,08968	
929,989	28,95863	
930,159	18,55444	
930,329	-91,73774	
930,5	-64,68361	
930,67	-39,71133	
930,84	-116,71157	
931,01	-66,76466	
931,18	-2,25431	
931,35	28,95863	
931,52	-37,63035	
931,69	18,55444	
931,86	35,20108	
932,03	14,39273	
932,2	8,15013	
932,37	-150,01117	
932,54	-4,33521	
932,71	-108,38688	
932,88	-14,7398	
933,05	1,90748	
933,22	-56,35943	
933,39	-66,76466	
933,56	168,3627	
933,73	-20,98261	
933,899	-0,17341	
934,069	45,60506	
934,239	68,49339	
934,409	-87,57551	
934,578	62,25118	
934,748	-18,90167	
934,918	-8,49703	
935,088	124,67127	
935,257	-0,17341	
935,427	-8,49703	
935,596	-131,27998	
935,766	-43,87333	
935,936	39,36269	
936,105	-60,52151	
936,275	89,30043	
936,444	-12,65887	
936,614	-2,25431	
936,783	-48,03534	
936,953	-18,90167	
937,122	-18,90167	
937,292	3,98837	
937,461	-97,98113	
937,631	53,92816	
937,8	76,81627	
937,969	18,55444	
938,139	66,41266	
938,308	62,25118	
938,477	-8,49703	
938,647	-0,17341	
938,816	-0,17341	
938,985	-56,35943	
939,155	-45,95433	
939,324	6,06925	
939,493	-48,03534	
939,662	43,52428	
939,831	-8,49703	
940,001	78,89697	
940,17	-43,87333	
940,339	-20,98261	
940,508	-16,82073	
940,677	105,94571	
940,846	53,92816	
941,015	76,81627	
941,184	24,79697	
941,353	14,39273	
941,522	-64,68361	
941,691	78,89697	
941,86	-75,08894	
942,029	10,231	
942,198	56,00892	
942,367	-29,30644	
942,536	-83,4133	
942,705	-35,54936	
942,873	-58,44047	
943,042	-48,03534	
943,211	-129,19876	
943,38	18,55444	
943,549	-31,38741	
943,717	1,90748	
943,886	-50,11636	
944,055	8,15013	
944,224	-83,4133	
944,392	120,51007	
944,561	-104,22456	
944,73	-2,25431	
944,898	-73,00786	
945,067	39,36269	
945,235	3,98837	
945,404	74,73555	
945,572	18,55444	
945,741	28,95863	
945,91	-52,19738	
946,078	33,12027	
946,247	14,39273	
946,415	20,63529	
946,583	16,47359	
946,752	89,30043	
946,92	6,06925	
947,089	122,59067	
947,257	-95,89999	
947,425	-64,68361	
947,594	47,68585	
947,762	6,06925	
947,93	47,68585	
948,099	49,76662	
948,267	74,73555	
948,435	10,231	
948,603	-48,03534	
948,772	22,71613	
948,94	14,39273	
949,108	6,06925	
949,276	41,44349	
949,444	28,95863	
949,612	43,52428	
949,78	72,65484	
949,948	-35,54936	
950,116	-60,52151	
950,285	120,51007	
950,453	28,95863	
950,621	39,36269	
950,789	-39,71133	
950,957	-2,25431	
951,124	-8,49703	
951,292	45,60506	
951,46	14,39273	
951,628	-33,46838	
951,796	18,55444	
951,964	-48,03534	
952,132	-66,76466	
952,3	56,00892	
952,467	-23,06356	
952,635	116,34885	
952,803	91,38111	
952,971	-181,23078	
953,138	39,36269	
953,306	-33,46838	
953,474	-48,03534	
953,641	-68,84573	
953,809	-0,17341	
953,977	14,39273	
954,144	-18,90167	
954,312	45,60506	
954,48	35,20108	
954,647	89,30043	
954,815	193,32827	
954,982	-14,7398	
955,15	-62,60256	
955,317	-12,65887	
955,485	18,55444	
955,652	-8,49703	
955,82	20,63529	
955,987	-100,06227	
956,154	112,18761	
956,322	-62,60256	
956,489	68,49339	
956,656	-20,98261	
956,824	-106,30572	
956,991	-112,54921	
957,158	-95,89999	
957,326	153,79913	
957,493	128,83245	
957,66	-16,82073	
957,827	-29,30644	
957,994	-83,4133	
958,162	-91,73774	
958,329	-62,60256	
958,496	-122,95514	
958,663	-104,22456	
958,83	6,06925	
958,997	-31,38741	
959,164	-37,63035	
959,331	-75,08894	
959,498	-137,52366	
959,665	-2,25431	
959,832	-58,44047	
959,999	-87,57551	
960,166	147,55753	
960,333	53,92816	
960,5	60,17043	
960,667	-31,38741	
960,834	-37,63035	
961,001	68,49339	
961,168	-12,65887	
961,334	41,44349	
961,501	28,95863	
961,668	-0,17341	
961,835	53,92816	
962,002	-29,30644	
962,168	-135,44243	
962,335	-66,76466	
962,502	31,03945	
962,668	20,63529	
962,835	-179,14944	
963,002	10,231	
963,168	101,78442	
963,335	31,03945	
963,502	87,21975	
963,668	-20,98261	
963,835	37,28189	
964,001	-58,44047	
964,168	-147,92991	
964,334	-83,4133	
964,501	-79,25111	
964,667	20,63529	
964,834	-48,03534	
965	58,08968	
965,166	-31,38741	
965,333	24,79697	
965,499	-58,44047	
965,665	137,15476	
965,832	-31,38741	
965,998	-158,33629	
966,164	-85,4944	
966,331	47,68585	
966,497	-33,46838	
966,663	-58,44047	
966,829	26,8778	
966,996	47,68585	
967,162	-97,98113	
967,328	-81,3322	
967,494	39,36269	
967,66	16,47359	
967,826	1,90748	
967,992	-25,14452	
968,158	16,47359	
968,324	68,49339	
968,491	-10,57795	
968,657	24,79697	
968,823	85,13906	
968,988	-85,4944	
969,154	-104,22456	
969,32	93,46178	
969,486	-43,87333	
969,652	-37,63035	
969,818	39,36269	
969,984	-58,44047	
970,15	37,28189	
970,316	18,55444	
970,481	-75,08894	
970,647	-31,38741	
970,813	-27,22547	
970,979	-62,60256	
971,144	95,54245	
971,31	-10,57795	
971,476	-62,60256	
971,642	-48,03534	
971,807	62,25118	
971,973	-29,30644	
972,138	-23,06356	
972,304	-62,60256	
972,47	-70,92679	
972,635	3,98837	
972,801	166,28221	
972,966	-37,63035	
973,132	-120,87395	
973,297	53,92816	
973,463	-116,71157	
973,628	-23,06356	
973,794	3,98837	
973,959	-0,17341	
974,125	-137,52366	
974,29	-56,35943	
974,455	-50,11636	
974,621	-66,76466	
974,786	85,13906	
974,951	12,31187	
975,117	62,25118	
975,282	68,49339	
975,447	6,06925	
975,612	3,98837	
975,778	-70,92679	
975,943	-129,19876	
976,108	37,28189	
976,273	51,84739	
976,438	-16,82073	
976,603	3,98837	
976,768	-37,63035	
976,934	-116,71157	
977,099	-41,79233	
977,264	18,55444	
977,429	-20,98261	
977,594	-70,92679	
977,759	85,13906	
977,924	-6,41612	
978,089	-29,30644	
978,254	91,38111	
978,418	78,89697	
978,583	-33,46838	
978,748	99,70377	
978,913	-62,60256	
979,078	97,62311	
979,243	3,98837	
979,408	60,17043	
979,572	-68,84573	
979,737	53,92816	
979,902	-122,95514	
980,067	33,12027	
980,231	45,60506	
980,396	-31,38741	
980,561	-29,30644	
980,725	-50,11636	
980,89	-81,3322	
981,055	-83,4133	
981,219	-33,46838	
981,384	37,28189	
981,548	-31,38741	
981,713	-62,60256	
981,877	-43,87333	
982,042	-39,71133	
982,206	-8,49703	
982,371	-70,92679	
982,535	37,28189	
982,7	559,41222	
982,864	-33,46838	
983,029	60,17043	
983,193	-70,92679	
983,357	-87,57551	
983,522	53,92816	
983,686	93,46178	
983,85	-20,98261	
984,015	20,63529	
984,179	49,76662	
984,343	-33,46838	
984,507	-4,33521	
984,672	41,44349	
984,836	45,60506	
985	-23,06356	
985,164	-68,84573	
985,328	41,44349	
985,492	-52,19738	
985,656	45,60506	
985,821	-16,82073	
985,985	-35,54936	
986,149	43,52428	
986,313	-10,57795	
986,477	-75,08894	
986,641	-39,71133	
986,805	-14,7398	
986,969	-41,79233	
987,133	26,8778	
987,296	-23,06356	
987,46	87,21975	
987,624	-4,33521	
987,788	-27,22547	
987,952	-66,76466	
988,116	62,25118	
988,28	20,63529	
988,443	33,12027	
988,607	-39,71133	
988,771	-6,41612	
988,935	83,05837	
989,098	-100,06227	
989,262	22,71613	
989,426	-45,95433	
989,589	3,98837	
989,753	-73,00786	
989,917	-106,30572	
990,08	-6,41612	
990,244	62,25118	
990,407	-66,76466	
990,571	28,95863	
990,734	-12,65887	
990,898	87,21975	
991,061	-33,46838	
991,225	1,90748	
991,388	-83,4133	
991,552	108,02635	
991,715	-95,89999	
991,878	6,06925	
992,042	62,25118	
992,205	26,8778	
992,369	-197,88173	
992,532	103,86507	
992,695	-168,7428	
992,858	24,79697	
993,022	74,73555	
993,185	-100,06227	
993,348	-16,82073	
993,511	26,8778	
993,675	-181,23078	
993,838	35,20108	
994,001	-2,25431	
994,164	10,231	
994,327	-4,33521	
994,49	-16,82073	
994,653	-75,08894	
994,816	-81,3322	
994,979	83,05837	
995,142	-54,2784	
995,305	-81,3322	
995,468	-106,30572	
995,631	-100,06227	
995,794	51,84739	
995,957	-0,17341	
996,12	70,57411	
996,283	91,38111	
996,446	39,36269	
996,609	-75,08894	
996,772	101,78442	
996,934	20,63529	
997,097	-35,54936	
997,26	-52,19738	
997,423	-60,52151	
997,585	-50,11636	
997,748	-20,98261	
997,911	1,90748	
998,074	118,42946	
998,236	-43,87333	
998,399	-122,95514	
998,561	-145,84865	
998,724	74,73555	
998,887	95,54245	
999,049	14,39273	
999,212	-0,17341	
999,374	-95,89999	
999,537	-35,54936	
999,699	-16,82073	
999,862	14,39273	
1000,024	-39,71133	
1000,187	-16,82073	
1000,349	14,39273	
1000,512	-27,22547	
1000,674	-14,7398	
1000,836	-50,11636	
1000,999	72,65484	
1001,161	-81,3322	
1001,323	-18,90167	
1001,486	-116,71157	
1001,648	-27,22547	
1001,81	-18,90167	
1001,972	28,95863	
1002,134	1,90748	
1002,297	60,17043	
1002,459	110,10698	
1002,621	-52,19738	
1002,783	3,98837	
1002,945	-79,25111	
1003,107	3,98837	
1003,269	70,57411	
1003,432	56,00892	
1003,594	-58,44047	
1003,756	-79,25111	
1003,918	53,92816	
1004,08	24,79697	
1004,242	22,71613	
1004,404	118,42946	
1004,565	-79,25111	
1004,727	78,89697	
1004,889	-39,71133	
1005,051	-64,68361	
1005,213	108,02635	
1005,375	-20,98261	
1005,537	24,79697	
1005,698	99,70377	
1005,86	49,76662	
1006,022	118,42946	
1006,184	-75,08894	
1006,345	18,55444	
1006,507	-156,255	
1006,669	-35,54936	
1006,831	-145,84865	
1006,992	-43,87333	
1007,154	-50,11636	
1007,315	-79,25111	
1007,477	-43,87333	
1007,639	45,60506	
1007,8	-127,11755	
1007,962	-56,35943	
1008,123	-41,79233	
1008,285	47,68585	
1008,446	28,95863	
1008,608	-147,92991	
1008,769	74,73555	
1008,931	-131,27998	
1009,092	56,00892	
1009,253	78,89697	
1009,415	-0,17341	
1009,576	-102,14341	
1009,737	-79,25111	
1009,899	114,26823	
1010,06	45,60506	
1010,221	51,84739	
1010,382	26,8778	
1010,544	24,79697	
1010,705	26,8778	
1010,866	128,83245	
1011,027	78,89697	
1011,188	49,76662	
1011,35	22,71613	
1011,511	-116,71157	
1011,672	-58,44047	
1011,833	-62,60256	
1011,994	85,13906	
1012,155	-2,25431	
1012,316	-73,00786	
1012,477	-23,06356	
1012,638	8,15013	
1012,799	8,15013	
1012,96	72,65484	
1013,121	-54,2784	
1013,282	12,31187	
1013,443	151,7186	
1013,604	105,94571	
1013,765	-39,71133	
1013,925	33,12027	
1014,086	8,15013	
1014,247	-112,54921	
1014,408	151,7186	
1014,569	-25,14452	
1014,729	-52,19738	
1014,89	-2,25431	
1015,051	41,44349	
1015,211	-70,92679	
1015,372	14,39273	
1015,533	80,97767	
1015,693	51,84739	
1015,854	43,52428	
1016,015	53,92816	
1016,175	10,231	
1016,336	-2,25431	
1016,496	-100,06227	
1016,657	-41,79233	
1016,817	66,41266	
1016,978	-183,31213	
1017,138	130,91304	
1017,299	-56,35943	
1017,459	-77,17002	
1017,62	43,52428	
1017,78	-14,7398	
1017,94	47,68585	
1018,101	20,63529	
1018,261	-60,52151	
1018,421	-83,4133	
1018,582	37,28189	
1018,742	-93,81887	
1018,902	-187,47485	
1019,062	-64,68361	
1019,223	-122,95514	
1019,383	-58,44047	
1019,543	-77,17002	
1019,703	-12,65887	
1019,863	-33,46838	
1020,023	-8,49703	
1020,184	-85,4944	
1020,344	-39,71133	
1020,504	-45,95433	
1020,664	-6,41612	
1020,824	-68,84573	
1020,984	-89,65662	
1021,144	116,34885	
1021,304	-129,19876	
1021,464	-54,2784	
1021,624	18,55444	
1021,784	-150,01117	
1021,943	-64,68361	
1022,103	-45,95433	
1022,263	-95,89999	
1022,423	-50,11636	
1022,583	-164,58018	
1022,743	-25,14452	
1022,902	-116,71157	
1023,062	-58,44047	
1023,222	-14,7398	
1023,382	-145,84865	
1023,541	101,78442	
1023,701	6,06925	
1023,861	-118,79275	
1024,02	33,12027	
1024,18	-91,73774	
1024,34	-108,38688	
1024,499	51,84739	
1024,659	72,65484	
1024,818	-18,90167	
1024,978	-106,30572	
1025,137	89,30043	
1025,297	-66,76466	
1025,456	51,84739	
1025,616	10,231	
1025,775	-41,79233	
1025,935	230,77532	
1026,094	-6,41612	
1026,254	-66,76466	
1026,413	28,95863	
1026,572	-10,57795	
1026,732	-110,46804	
1026,891	8,15013	
1027,05	-18,90167	
1027,21	-83,4133	
1027,369	-60,52151	
1027,528	-68,84573	
1027,687	-14,7398	
1027,846	-14,7398	
1028,006	-102,14341	
1028,165	-156,255	
1028,324	60,17043	
1028,483	-12,65887	
1028,642	-54,2784	
1028,801	-6,41612	
1028,96	-29,30644	
1029,119	-100,06227	
1029,278	-20,98261	
1029,437	-83,4133	
1029,596	3,98837	
1029,755	-95,89999	
1029,914	114,26823	
1030,073	-16,82073	
1030,232	-14,7398	
1030,391	-0,17341	
1030,55	-12,65887	
1030,709	60,17043	
1030,868	-64,68361	
1031,026	45,60506	
1031,185	-102,14341	
1031,344	74,73555	
1031,503	-29,30644	
1031,662	-104,22456	
1031,82	-62,60256	
1031,979	-110,46804	
1032,138	126,75187	
1032,296	3,98837	
1032,455	-12,65887	
1032,614	33,12027	
1032,772	76,81627	
1032,931	-41,79233	
1033,089	24,79697	
1033,248	-12,65887	
1033,407	-89,65662	
1033,565	16,47359	
1033,724	-81,3322	
1033,882	-39,71133	
1034,04	-0,17341	
1034,199	87,21975	
1034,357	-118,79275	
1034,516	-62,60256	
1034,674	-41,79233	
1034,832	47,68585	
1034,991	-112,54921	
1035,149	-60,52151	
1035,307	58,08968	
1035,466	39,36269	
1035,624	-48,03534	
1035,782	12,31187	
1035,941	72,65484	
1036,099	-27,22547	
1036,257	-23,06356	
1036,415	58,08968	
1036,573	-4,33521	
1036,731	-39,71133	
1036,889	-10,57795	
1037,048	103,86507	
1037,206	-39,71133	
1037,364	3,98837	
1037,522	-154,17372	
1037,68	-73,00786	
1037,838	16,47359	
1037,996	16,47359	
1038,154	16,47359	
