345,274	-319,13183	
345,493	-319,13183	
345,712	-319,13183	
345,932	-410,73227	
346,151	32,60006	
346,37	20,11508	
346,59	-38,15059	
346,809	28,43842	
347,028	28,43842	
347,247	20,11508	
347,467	-40,23158	
347,686	-44,39358	
347,905	22,19592	
348,124	80,4575	
348,343	-19,42191	
348,563	-90,1769	
348,782	107,50619	
349,001	36,76169	
349,22	-17,34097	
349,439	24,27676	
349,658	-44,39358	
349,877	-104,74485	
350,096	-31,90765	
350,315	3,46815	
350,534	107,50619	
350,753	-83,93358	
350,972	-19,42191	
351,191	51,3272	
351,41	9,71079	
351,629	61,73099	
351,848	24,27676	
352,067	-17,34097	
352,286	63,81173	
352,505	-98,50141	
352,724	51,3272	
352,943	-21,50285	
353,162	-58,96073	
353,381	-21,50285	
353,599	38,84249	
353,818	26,35759	
354,037	43,00408	
354,256	90,86094	
354,475	9,71079	
354,693	186,56683	
354,912	84,61889	
355,131	-15,26003	
355,35	70,05393	
355,568	43,00408	
355,787	9,71079	
356,006	-6,93634	
356,224	-98,50141	
356,443	51,3272	
356,661	51,3272	
356,88	34,68088	
357,099	-81,85248	
357,317	9,71079	
357,536	59,65024	
357,754	67,97321	
357,973	26,35759	
358,191	80,4575	
358,41	-15,26003	
358,628	76,29609	
358,847	180,32546	
359,065	-119,31305	
359,284	-17,34097	
359,502	22,19592	
359,721	34,68088	
359,939	90,86094	
360,157	90,86094	
360,376	99,1836	
360,594	-58,96073	
360,813	30,51925	
361,031	65,89247	
361,249	57,56949	
361,467	32,60006	
361,686	-25,66476	
361,904	-33,98863	
362,122	65,89247	
362,341	-92,25802	
362,559	32,60006	
362,777	115,8287	
362,995	119,98992	
363,213	24,27676	
363,431	57,56949	
363,65	174,08404	
363,868	-63,12282	
364,086	142,8763	
364,304	-100,58255	
364,522	128,31231	
364,74	-9,01726	
364,958	-2,77453	
365,176	-98,50141	
365,394	24,27676	
365,612	-86,01468	
365,83	24,27676	
366,048	-92,25802	
366,266	-52,71763	
366,484	-17,34097	
366,702	-42,31258	
366,92	-0,69363	
367,138	15,95338	
367,356	65,89247	
367,574	115,8287	
367,792	95,02228	
368,01	-0,69363	
368,227	49,24643	
368,445	-4,85543	
368,663	78,3768	
368,881	-6,93634	
369,099	-0,69363	
369,316	57,56949	
369,534	67,97321	
369,752	13,87252	
369,97	13,87252	
370,187	-125,55665	
370,405	49,24643	
370,623	92,94161	
370,84	90,86094	
371,058	-125,55665	
371,276	7,62991	
371,493	99,1836	
371,711	130,39289	
371,928	-9,01726	
372,146	-83,93358	
372,364	99,1836	
372,581	78,3768	
372,799	-9,01726	
373,016	-17,34097	
373,234	82,5382	
373,451	3,46815	
373,669	101,26426	
373,886	-54,79866	
374,103	128,31231	
374,321	124,15112	
374,538	47,16565	
374,756	38,84249	
374,973	-6,93634	
375,19	-19,42191	
375,408	-46,47459	
375,625	49,24643	
375,842	40,92329	
376,06	1,38726	
376,277	99,1836	
376,494	63,81173	
376,712	-42,31258	
376,929	24,27676	
377,146	55,48873	
377,363	86,69958	
377,581	124,15112	
377,798	157,44005	
378,015	-38,15059	
378,232	-54,79866	
378,449	142,8763	
378,666	36,76169	
378,883	99,1836	
379,101	-73,52813	
379,318	-73,52813	
379,535	18,03423	
379,752	51,3272	
379,969	-42,31258	
380,186	51,3272	
380,403	209,4515	
380,62	-69,36599	
380,837	38,84249	
381,054	149,11793	
381,271	13,87252	
381,488	-48,5556	
381,705	-17,34097	
381,921	24,27676	
382,138	86,69958	
382,355	99,1836	
382,572	47,16565	
382,789	24,27676	
383,006	-38,15059	
383,223	1,38726	
383,439	132,47347	
383,656	28,43842	
383,873	40,92329	
384,09	47,16565	
384,306	-31,90765	
384,523	15,95338	
384,74	167,84258	
384,957	65,89247	
385,173	-0,69363	
385,39	-69,36599	
385,607	70,05393	
385,823	26,35759	
386,04	-33,98863	
386,256	-13,1791	
386,473	115,8287	
386,69	-27,74572	
386,906	-27,74572	
387,123	115,8287	
387,339	5,54903	
387,556	53,40797	
387,772	-113,06951	
387,989	45,08487	
388,205	40,92329	
388,422	40,92329	
388,638	18,03423	
388,855	113,74808	
389,071	180,32546	
389,287	74,21537	
389,504	61,73099	
389,72	43,00408	
389,937	49,24643	
390,153	-54,79866	
390,369	86,69958	
390,585	9,71079	
390,802	63,81173	
391,018	24,27676	
391,234	34,68088	
391,451	-135,96274	
391,667	1,38726	
391,883	7,62991	
392,099	49,24643	
392,315	-23,5838	
392,532	3,46815	
392,748	18,03423	
392,964	-63,12282	
393,18	95,02228	
393,396	-11,09818	
393,612	88,78026	
393,828	-36,06961	
394,044	18,03423	
394,26	109,58682	
394,477	45,08487	
394,693	32,60006	
394,909	7,62991	
395,125	80,4575	
395,341	1,38726	
395,557	59,65024	
395,772	-29,82668	
395,988	273,94153	
396,204	49,24643	
396,42	18,03423	
396,636	117,90931	
396,852	88,78026	
397,068	40,92329	
397,284	-54,79866	
397,5	109,58682	
397,715	47,16565	
397,931	-0,69363	
398,147	53,40797	
398,363	34,68088	
398,578	34,68088	
398,794	11,79166	
399,01	28,43842	
399,226	76,29609	
399,441	-56,87969	
399,657	-6,93634	
399,873	-56,87969	
400,088	117,90931	
400,304	51,3272	
400,52	184,48638	
400,735	-148,45023	
400,951	92,94161	
401,166	163,68158	
401,382	-115,15068	
401,597	138,71518	
401,813	92,94161	
402,029	63,81173	
402,244	-4,85543	
402,46	105,42555	
402,675	-4,85543	
402,89	22,19592	
403,106	103,34491	
403,321	76,29609	
403,537	32,60006	
403,752	-86,01468	
403,968	-0,69363	
404,183	72,13466	
404,398	-44,39358	
404,614	74,21537	
404,829	-50,63661	
405,044	99,1836	
405,26	-25,66476	
405,475	-0,69363	
405,69	40,92329	
405,905	-38,15059	
406,121	-33,98863	
406,336	-13,1791	
406,551	86,69958	
406,766	-46,47459	
406,981	1,38726	
407,196	3,46815	
407,412	-6,93634	
407,627	59,65024	
407,842	59,65024	
408,057	172,00356	
408,272	-11,09818	
408,487	1,38726	
408,702	43,00408	
408,917	88,78026	
409,132	115,8287	
409,347	15,95338	
409,562	30,51925	
409,777	-36,06961	
409,992	-25,66476	
410,207	7,62991	
410,422	140,79574	
410,637	119,98992	
410,852	-9,01726	
411,067	36,76169	
411,282	-125,55665	
411,496	61,73099	
411,711	-19,42191	
411,926	207,3711	
412,141	147,03739	
412,356	115,8287	
412,571	22,19592	
412,785	86,69958	
413	61,73099	
413,215	15,95338	
413,429	11,79166	
413,644	57,56949	
413,859	18,03423	
414,074	84,61889	
414,288	32,60006	
414,503	-19,42191	
414,718	57,56949	
414,932	38,84249	
415,147	-36,06961	
415,361	86,69958	
415,576	-9,01726	
415,79	-13,1791	
416,005	53,40797	
416,22	86,69958	
416,434	9,71079	
416,649	-25,66476	
416,863	59,65024	
417,077	-119,31305	
417,292	122,07052	
417,506	309,30509	
417,721	-29,82668	
417,935	196,96903	
418,15	-33,98863	
418,364	161,60108	
418,578	1,38726	
418,793	55,48873	
419,007	15,95338	
419,221	36,76169	
419,436	43,00408	
419,65	47,16565	
419,864	99,1836	
420,078	144,95685	
420,293	47,16565	
420,507	43,00408	
420,721	90,86094	
420,935	-21,50285	
421,149	-11,09818	
421,364	-29,82668	
421,578	88,78026	
421,792	-21,50285	
422,006	-86,01468	
422,22	99,1836	
422,434	134,55405	
422,648	-142,20646	
422,862	134,55405	
423,076	7,62991	
423,29	20,11508	
423,504	-19,42191	
423,718	111,66745	
423,932	47,16565	
424,146	11,79166	
424,36	47,16565	
424,574	211,5319	
424,788	97,10295	
425,002	65,89247	
425,216	117,90931	
425,43	-21,50285	
425,644	84,61889	
425,858	-54,79866	
426,071	-46,47459	
426,285	1,38726	
426,499	134,55405	
426,713	59,65024	
426,927	97,10295	
427,14	-19,42191	
427,354	255,21909	
427,568	26,35759	
427,782	67,97321	
427,995	-21,50285	
428,209	28,43842	
428,423	61,73099	
428,636	-23,5838	
428,85	-106,82601	
429,063	34,68088	
429,277	51,3272	
429,491	34,68088	
429,704	22,19592	
429,918	-19,42191	
430,131	-15,26003	
430,345	-6,93634	
430,558	-135,96274	
430,772	-17,34097	
430,985	-58,96073	
431,199	30,51925	
431,412	-69,36599	
431,626	-46,47459	
431,839	-71,44706	
432,053	11,79166	
432,266	86,69958	
432,479	153,279	
432,693	76,29609	
432,906	63,81173	
433,119	22,19592	
433,333	-19,42191	
433,546	97,10295	
433,759	5,54903	
433,973	-92,25802	
434,186	132,47347	
434,399	28,43842	
434,612	70,05393	
434,825	207,3711	
435,039	-21,50285	
435,252	7,62991	
435,465	134,55405	
435,678	-123,47544	
435,891	7,62991	
436,104	30,51925	
436,318	36,76169	
436,531	26,35759	
436,744	76,29609	
436,957	65,89247	
437,17	7,62991	
437,383	-19,42191	
437,596	1,38726	
437,809	-31,90765	
438,022	-38,15059	
438,235	-58,96073	
438,448	107,50619	
438,661	63,81173	
438,874	47,16565	
439,086	-56,87969	
439,299	70,05393	
439,512	99,1836	
439,725	82,5382	
439,938	95,02228	
440,151	18,03423	
440,364	22,19592	
440,576	149,11793	
440,789	119,98992	
441,002	13,87252	
441,215	59,65024	
441,427	3,46815	
441,64	45,08487	
441,853	84,61889	
442,066	86,69958	
442,278	26,35759	
442,491	126,23172	
442,704	76,29609	
442,916	34,68088	
443,129	234,41593	
443,341	117,90931	
443,554	22,19592	
443,767	-6,93634	
443,979	43,00408	
444,192	147,03739	
444,404	101,26426	
444,617	57,56949	
444,829	1,38726	
445,042	122,07052	
445,254	111,66745	
445,467	13,87252	
445,679	149,11793	
445,892	167,84258	
446,104	57,56949	
446,316	9,71079	
446,529	-42,31258	
446,741	15,95338	
446,953	147,03739	
447,166	7,62991	
447,378	22,19592	
447,59	49,24643	
447,803	90,86094	
448,015	82,5382	
448,227	-46,47459	
448,439	82,5382	
448,652	-50,63661	
448,864	207,3711	
449,076	49,24643	
449,288	26,35759	
449,5	-29,82668	
449,712	45,08487	
449,925	111,66745	
450,137	103,34491	
450,349	-86,01468	
450,561	97,10295	
450,773	-69,36599	
450,985	51,3272	
451,197	18,03423	
451,409	-9,01726	
451,621	45,08487	
451,833	199,04945	
452,045	130,39289	
452,257	88,78026	
452,469	99,1836	
452,681	-52,71763	
452,893	3,46815	
453,105	90,86094	
453,317	90,86094	
453,529	-38,15059	
453,74	65,89247	
453,952	-98,50141	
454,164	36,76169	
454,376	-38,15059	
454,588	88,78026	
454,799	57,56949	
455,011	26,35759	
455,223	-56,87969	
455,435	-6,93634	
455,646	153,279	
455,858	-29,82668	
456,07	72,13466	
456,281	-27,74572	
456,493	-31,90765	
456,705	130,39289	
456,916	-48,5556	
457,128	7,62991	
457,34	-17,34097	
457,551	84,61889	
457,763	140,79574	
457,974	-135,96274	
458,186	7,62991	
458,397	-25,66476	
458,609	34,68088	
458,82	-0,69363	
459,032	20,11508	
459,243	136,63462	
459,455	103,34491	
459,666	-36,06961	
459,878	-29,82668	
460,089	67,97321	
460,3	-36,06961	
460,512	47,16565	
460,723	111,66745	
460,934	92,94161	
461,146	122,07052	
461,357	365,46797	
461,568	11,79166	
461,78	109,58682	
461,991	172,00356	
462,202	-9,01726	
462,413	149,11793	
462,625	13,87252	
462,836	67,97321	
463,047	-50,63661	
463,258	111,66745	
463,469	-108,90717	
463,68	-113,06951	
463,891	80,4575	
464,103	36,76169	
464,314	-31,90765	
464,525	-83,93358	
464,736	105,42555	
464,947	140,79574	
465,158	-123,47544	
465,369	-11,09818	
465,58	-63,12282	
465,791	-0,69363	
466,002	3,46815	
466,213	-86,01468	
466,424	95,02228	
466,635	-27,74572	
466,846	86,69958	
467,056	-65,20387	
467,267	40,92329	
467,478	43,00408	
467,689	-50,63661	
467,9	-40,23158	
468,111	-148,45023	
468,322	-54,79866	
468,532	76,29609	
468,743	36,76169	
468,954	172,00356	
469,165	-86,01468	
469,375	92,94161	
469,586	-15,26003	
469,797	142,8763	
470,007	7,62991	
470,218	-79,77138	
470,429	9,71079	
470,639	184,48638	
470,85	51,3272	
471,061	61,73099	
471,271	-31,90765	
471,482	76,29609	
471,692	47,16565	
471,903	-2,77453	
472,113	13,87252	
472,324	76,29609	
472,534	67,97321	
472,745	49,24643	
472,955	-38,15059	
473,166	7,62991	
473,376	97,10295	
473,587	-73,52813	
473,797	-29,82668	
474,007	72,13466	
474,218	28,43842	
474,428	20,11508	
474,638	67,97321	
474,849	47,16565	
475,059	49,24643	
475,269	-15,26003	
475,48	-36,06961	
475,69	80,4575	
475,9	7,62991	
476,11	-0,69363	
476,321	84,61889	
476,531	-46,47459	
476,741	11,79166	
476,951	78,3768	
477,161	61,73099	
477,371	13,87252	
477,581	-2,77453	
477,792	-140,12521	
478,002	105,42555	
478,212	155,35953	
478,422	-29,82668	
478,632	40,92329	
478,842	-19,42191	
479,052	-33,98863	
479,262	78,3768	
479,472	126,23172	
479,682	61,73099	
479,892	24,27676	
480,102	90,86094	
480,312	38,84249	
480,522	51,3272	
480,731	63,81173	
480,941	153,279	
481,151	-54,79866	
481,361	70,05393	
481,571	-11,09818	
481,781	207,3711	
481,991	101,26426	
482,2	26,35759	
482,41	-86,01468	
482,62	90,86094	
482,83	140,79574	
483,039	122,07052	
483,249	80,4575	
483,459	99,1836	
483,668	78,3768	
483,878	-46,47459	
484,088	-71,44706	
484,297	-121,39424	
484,507	11,79166	
484,716	9,71079	
484,926	101,26426	
485,136	-15,26003	
485,345	122,07052	
485,555	-48,5556	
485,764	105,42555	
485,974	109,58682	
486,183	184,48638	
486,393	78,3768	
486,602	172,00356	
486,812	36,76169	
487,021	38,84249	
487,23	59,65024	
487,44	-140,12521	
487,649	-9,01726	
487,859	80,4575	
488,068	15,95338	
488,277	-56,87969	
488,487	-23,5838	
488,696	-204,64627	
488,905	-0,69363	
489,115	-50,63661	
489,324	5,54903	
489,533	22,19592	
489,742	172,00356	
489,951	-54,79866	
490,161	-33,98863	
490,37	-71,44706	
490,579	-138,04397	
490,788	165,76208	
490,997	-40,23158	
491,206	103,34491	
491,415	-27,74572	
491,625	1,38726	
491,834	-63,12282	
492,043	22,19592	
492,252	30,51925	
492,461	-79,77138	
492,67	67,97321	
492,879	167,84258	
493,088	-71,44706	
493,297	477,78364	
493,506	18,03423	
493,715	167,84258	
493,924	-98,50141	
494,132	63,81173	
494,341	30,51925	
494,55	226,09453	
494,759	122,07052	
494,968	51,3272	
495,177	174,08404	
495,386	190,72773	
495,594	63,81173	
495,803	32,60006	
496,012	-44,39358	
496,221	-0,69363	
496,429	107,50619	
496,638	174,08404	
496,847	28,43842	
497,055	90,86094	
497,264	45,08487	
497,473	95,02228	
497,681	174,08404	
497,89	163,68158	
498,099	-0,69363	
498,307	-36,06961	
498,516	130,39289	
498,724	36,76169	
498,933	-46,47459	
499,141	-25,66476	
499,35	57,56949	
499,558	186,56683	
499,767	101,26426	
499,975	-44,39358	
500,184	45,08487	
500,392	-58,96073	
500,601	22,19592	
500,809	113,74808	
501,018	-33,98863	
501,226	-61,04177	
501,434	-13,1791	
501,643	49,24643	
501,851	169,92307	
502,059	-33,98863	
502,268	157,44005	
502,476	34,68088	
502,684	111,66745	
502,892	147,03739	
503,101	90,86094	
503,309	28,43842	
503,517	-56,87969	
503,725	13,87252	
503,933	-221,2977	
504,141	-83,93358	
504,35	-48,5556	
504,558	180,32546	
504,766	-25,66476	
504,974	151,19847	
505,182	115,8287	
505,39	59,65024	
505,598	82,5382	
505,806	99,1836	
506,014	101,26426	
506,222	149,11793	
506,43	-6,93634	
506,638	178,24499	
506,846	99,1836	
507,054	88,78026	
507,262	20,11508	
507,47	122,07052	
507,678	-40,23158	
507,886	-17,34097	
508,094	53,40797	
508,301	147,03739	
508,509	40,92329	
508,717	117,90931	
508,925	-4,85543	
509,133	9,71079	
509,34	15,95338	
509,548	57,56949	
509,756	-27,74572	
509,964	84,61889	
510,171	117,90931	
510,379	7,62991	
510,587	82,5382	
510,794	15,95338	
511,002	-40,23158	
511,21	80,4575	
511,417	-42,31258	
511,625	136,63462	
511,832	-42,31258	
512,04	-77,69029	
512,247	28,43842	
512,455	-38,15059	
512,663	201,12987	
512,87	128,31231	
513,078	90,86094	
513,285	13,87252	
513,492	34,68088	
513,7	-40,23158	
513,907	67,97321	
514,115	-104,74485	
514,322	70,05393	
514,529	18,03423	
514,737	-40,23158	
514,944	-19,42191	
515,152	26,35759	
515,359	-31,90765	
515,566	159,52056	
515,773	-11,09818	
515,981	-58,96073	
516,188	-36,06961	
516,395	72,13466	
516,602	38,84249	
516,81	57,56949	
517,017	-13,1791	
517,224	78,3768	
517,431	-133,88151	
517,638	-46,47459	
517,845	36,76169	
518,053	288,50316	
518,26	-40,23158	
518,467	70,05393	
518,674	5,54903	
518,881	55,48873	
519,088	74,21537	
519,295	5,54903	
519,502	101,26426	
519,709	-17,34097	
519,916	90,86094	
520,123	136,63462	
520,33	36,76169	
520,537	9,71079	
520,744	-88,09579	
520,95	74,21537	
521,157	97,10295	
521,364	130,39289	
521,571	9,71079	
521,778	134,55405	
521,985	15,95338	
522,191	132,47347	
522,398	-25,66476	
522,605	-2,77453	
522,812	-119,31305	
523,019	99,1836	
523,225	-150,53149	
523,432	169,92307	
523,639	70,05393	
523,845	24,27676	
524,052	-29,82668	
524,259	-0,69363	
524,465	-61,04177	
524,672	-61,04177	
524,878	-13,1791	
525,085	-31,90765	
525,292	7,62991	
525,498	3,46815	
525,705	269,78102	
525,911	-81,85248	
526,118	84,61889	
526,324	111,66745	
526,531	55,48873	
526,737	159,52056	
526,944	51,3272	
527,15	47,16565	
527,356	63,81173	
527,563	32,60006	
527,769	-2,77453	
527,975	59,65024	
528,182	103,34491	
528,388	74,21537	
528,594	74,21537	
528,801	36,76169	
529,007	-11,09818	
529,213	76,29609	
529,42	53,40797	
529,626	-13,1791	
529,832	63,81173	
530,038	-0,69363	
530,244	-77,69029	
530,451	18,03423	
530,657	72,13466	
530,863	49,24643	
531,069	-4,85543	
531,275	-117,23186	
531,481	122,07052	
531,687	-0,69363	
531,893	-13,1791	
532,099	1,38726	
532,305	-42,31258	
532,511	-96,42028	
532,717	-4,85543	
532,923	47,16565	
533,129	43,00408	
533,335	15,95338	
533,541	138,71518	
533,747	-65,20387	
533,953	-25,66476	
534,159	26,35759	
534,365	103,34491	
534,571	95,02228	
534,777	76,29609	
534,982	-13,1791	
535,188	13,87252	
535,394	-19,42191	
535,6	63,81173	
535,806	47,16565	
536,011	63,81173	
536,217	78,3768	
536,423	11,79166	
536,628	119,98992	
536,834	-75,60921	
537,04	40,92329	
537,245	5,54903	
537,451	163,68158	
537,657	72,13466	
537,862	36,76169	
538,068	32,60006	
538,273	149,11793	
538,479	190,72773	
538,685	136,63462	
538,89	22,19592	
539,096	103,34491	
539,301	-9,01726	
539,507	49,24643	
539,712	101,26426	
539,917	70,05393	
540,123	284,34272	
540,328	132,47347	
540,534	74,21537	
540,739	192,80816	
540,944	59,65024	
541,15	159,52056	
541,355	128,31231	
541,56	119,98992	
541,766	109,58682	
541,971	47,16565	
542,176	-94,33915	
542,382	142,8763	
542,587	130,39289	
542,792	-69,36599	
542,997	228,17488	
543,202	-4,85543	
543,408	13,87252	
543,613	144,95685	
543,818	36,76169	
544,023	22,19592	
544,228	13,87252	
544,433	53,40797	
544,638	-6,93634	
544,843	51,3272	
545,049	36,76169	
545,254	-0,69363	
545,459	-56,87969	
545,664	142,8763	
545,869	172,00356	
546,074	22,19592	
546,279	-0,69363	
546,483	-6,93634	
546,688	-31,90765	
546,893	65,89247	
547,098	49,24643	
547,303	-58,96073	
547,508	72,13466	
547,713	76,29609	
547,918	-0,69363	
548,122	-50,63661	
548,327	-17,34097	
548,532	99,1836	
548,737	-6,93634	
548,942	57,56949	
549,146	95,02228	
549,351	53,40797	
549,556	24,27676	
549,76	51,3272	
549,965	90,86094	
550,17	47,16565	
550,374	5,54903	
550,579	3,46815	
550,784	101,26426	
550,988	144,95685	
551,193	11,79166	
551,397	32,60006	
551,602	1,38726	
551,806	-31,90765	
552,011	105,42555	
552,215	59,65024	
552,42	-50,63661	
552,624	88,78026	
552,829	-23,5838	
553,033	-9,01726	
553,238	76,29609	
553,442	-9,01726	
553,646	3,46815	
553,851	138,71518	
554,055	149,11793	
554,26	147,03739	
554,464	211,5319	
554,668	255,21909	
554,872	294,74379	
555,077	303,06456	
555,281	377,94815	
555,485	542,25519	
555,69	673,26491	
555,894	841,68084	
556,098	895,73443	
556,302	879,10286	
556,506	1053,72134	
556,71	1197,13678	
556,915	1315,59636	
557,119	1380,01652	
557,323	1438,19933	
557,527	1704,14083	
557,731	1683,36631	
557,935	1913,94334	
558,139	1982,48483	
558,343	2073,86754	
558,547	2202,62268	
558,751	2237,92419	
558,955	2171,47346	
559,159	2291,91282	
559,363	2445,56016	
559,567	2377,04405	
559,771	2462,16957	
559,975	2607,49268	
560,179	2347,97549	
560,382	2599,18895	
560,586	2572,20144	
560,79	2458,01723	
560,994	2464,24573	
561,198	2482,93102	
561,402	2489,15939	
561,605	2449,71253	
561,809	2335,51734	
562,013	2570,12546	
562,217	2663,54148	
562,42	2445,56016	
562,624	2555,59347	
562,828	2476,70262	
563,031	2487,08327	
563,235	2466,32188	
563,439	2507,84433	
563,642	2582,58132	
563,846	2460,0934	
564,049	2437,25537	
564,253	2489,15939	
564,456	2422,72186	
564,66	2439,33157	
564,863	2347,97549	
565,067	2379,12035	
565,27	2279,45411	
565,474	2337,5937	
565,677	2428,95053	
565,881	2420,64564	
566,084	2329,28821	
566,288	2424,79809	
566,491	2300,21856	
566,694	2420,64564	
566,898	2428,95053	
567,101	2541,06131	
567,304	2422,72186	
567,508	2451,78871	
567,711	2320,98266	
567,914	2383,27294	
568,118	2364,58618	
568,321	2499,53995	
568,524	2480,85489	
568,727	2370,81513	
568,93	2480,85489	
569,134	2383,27294	
569,337	2418,5694	
569,54	2466,32188	
569,743	2383,27294	
569,946	2391,57808	
570,149	2601,26489	
570,352	2393,65435	
570,555	2377,04405	
570,758	2406,11194	
570,962	2364,58618	
571,165	2252,45982	
571,368	2289,83638	
571,571	2401,95942	
571,774	2316,82987	
571,976	2437,25537	
572,179	2563,89748	
572,382	2453,86489	
572,585	2497,46384	
572,788	2331,36459	
572,991	2586,73325	
573,194	2408,18819	
573,397	2312,67706	
573,6	2487,08327	
573,802	2545,21337	
574,005	2536,90923	
574,208	2385,34923	
574,411	2524,45292	
574,613	2458,01723	
574,816	2424,79809	
575,019	2507,84433	
575,222	2406,11194	
575,424	2389,5018	
575,627	2576,35341	
575,83	2435,17916	
576,032	2406,11194	
576,235	2582,58132	
576,438	2499,53995	
576,64	2406,11194	
576,843	2505,76824	
577,045	2300,21856	
577,248	2559,74548	
577,45	2426,87431	
577,653	2619,94818	
577,855	2590,88516	
578,058	2551,44144	
578,26	2597,11301	
578,463	2551,44144	
578,665	2644,85882	
578,868	2572,20144	
579,07	2671,8448	
579,272	2541,06131	
579,475	2584,65729	
579,677	2503,69214	
579,879	2603,34082	
580,082	2557,66947	
580,284	2447,63634	
580,486	2493,31162	
580,689	2549,36542	
580,891	2682,22387	
581,093	2642,78295	
581,295	2644,85882	
581,498	2526,52898	
581,7	2854,50424	
581,902	2489,15939	
582,104	2630,32767	
582,306	2557,66947	
582,508	2675,99644	
582,71	2831,67322	
582,913	2740,34512	
583,115	2794,31251	
583,317	2858,65529	
583,519	2746,57224	
583,721	2630,32767	
583,923	2746,57224	
584,125	2848,27764	
584,327	2779,78305	
584,529	2790,16125	
584,731	2898,0896	
584,933	2786,00998	
585,135	2709,20906	
585,336	2802,61498	
585,538	2866,95735	
585,74	2896,01414	
585,942	2823,37094	
586,144	2871,10836	
586,346	2740,34512	
586,547	2945,82426	
586,749	2893,93867	
586,951	2804,69059	
587,153	2885,63679	
587,355	2825,44651	
587,556	3018,46057	
587,758	2765,25343	
587,96	2777,7074	
588,161	2972,80394	
588,363	2954,12576	
588,565	2802,61498	
588,766	3057,89001	
588,968	3068,26597	
589,17	3008,08421	
589,371	3105,61876	
589,573	3072,41634	
589,774	3078,64186	
589,976	3043,36351	
590,177	3028,83686	
590,379	2896,01414	
590,58	2970,7286	
590,782	3068,26597	
590,983	3076,56669	
591,185	2997,70776	
591,386	3126,36985	
591,587	3313,11459	
591,789	3201,07099	
591,99	3172,02106	
592,192	3236,34503	
592,393	3350,4603	
592,594	3236,34503	
592,796	3342,16135	
592,997	3165,79599	
593,198	3263,31864	
593,399	3296,51616	
593,601	3383,65557	
593,802	3338,01185	
594,003	3286,14202	
594,204	3452,11811	
594,405	3460,41635	
594,607	3615,99843	
594,808	3398,17823	
595,009	3620,14702	
595,21	3537,17254	
595,411	3595,25525	
595,612	3441,74523	
595,813	3680,30015	
596,014	3667,85491	
596,215	3701,04195	
596,416	3634,667	
596,617	3533,02367	
596,818	3779,85769	
597,019	3732,15401	
597,22	3686,52272	
597,421	3815,11577	
597,622	3524,7259	
597,823	3817,18974	
598,024	3516,42808	
598,225	3713,48686	
598,426	3632,59273	
598,627	3927,1055	
598,827	3599,40391	
599,028	3769,48747	
599,229	4007,98075	
599,43	3831,70747	
599,63	3742,52453	
599,831	3935,40064	
600,032	3875,25964	
600,233	3976,8755	
600,433	3864,89021	
600,634	4018,34899	
600,835	3842,07717	
601,035	3694,81944	
601,236	3858,66851	
601,437	3819,26372	
601,637	3676,15175	
601,838	3898,07208	
602,038	3813,04179	
602,239	3715,561	
602,439	3854,5207	
602,64	3723,85753	
602,841	3744,59862	
603,041	3593,18091	
603,241	3790,22781	
603,442	3667,85491	
603,642	3632,59273	
603,843	3821,33768	
604,043	3632,59273	
604,244	3748,7468	
604,444	3653,33531	
604,644	3582,80917	
604,845	3775,70961	
605,045	3707,26442	
605,245	3400,25288	
605,446	3485,31075	
605,646	3723,85753	
605,846	3607,7012	
606,046	3591,10657	
606,247	3454,19267	
606,447	3503,98124	
606,647	3304,8154	
606,847	3350,4603	
607,047	3450,04354	
607,248	3460,41635	
607,448	3477,01267	
607,648	3223,89548	
607,848	3284,06719	
608,048	3387,80492	
608,248	3267,46837	
608,448	3313,11459	
608,648	3414,77536	
608,848	3313,11459	
609,048	3281,99235	
609,248	3296,51616	
609,448	3418,92461	
609,648	3331,78758	
609,848	3132,59511	
610,048	3115,99435	
610,248	3240,49485	
610,448	3089,01766	
610,648	3028,83686	
610,847	3128,44494	
611,047	3128,44494	
611,247	3161,64592	
611,447	3037,13782	
611,647	3001,85835	
611,846	3030,9121	
612,046	2910,54229	
612,246	2898,0896	
612,446	3101,46851	
612,645	2860,73081	
612,845	2896,01414	
613,045	3014,31004	
613,244	3028,83686	
613,444	2947,89964	
613,644	2956,20112	
613,843	2918,84401	
614,043	2900,16505	
614,243	2773,55609	
614,442	2812,993	
614,642	2817,14418	
614,841	2773,55609	
615,041	2705,05753	
615,24	2871,10836	
615,44	2927,14569	
615,639	2875,25935	
615,839	2734,11797	
616,038	2690,52707	
616,237	2827,52209	
616,437	2756,95071	
616,636	2804,69059	
616,836	2979,02994	
617,035	2725,81506	
617,234	2744,49654	
617,434	2738,26941	
617,633	2740,34512	
617,832	2819,21977	
618,032	2891,86321	
618,231	2748,64795	
618,43	2756,95071	
618,629	2709,20906	
618,828	2715,43634	
619,028	2817,14418	
619,227	2817,14418	
619,426	2858,65529	
619,625	2688,45127	
619,824	2846,2021	
620,023	2597,11301	
620,222	2572,20144	
620,422	2563,89748	
620,621	2736,19369	
620,82	2424,79809	
621,019	2752,79934	
621,218	2516,14865	
621,417	2333,44096	
621,616	2391,57808	
621,815	2410,26444	
622,014	2416,49317	
622,213	2476,70262	
622,411	2489,15939	
622,61	2568,04947	
622,809	2447,63634	
623,008	2426,87431	
623,207	2642,78295	
623,406	2516,14865	
623,605	2460,0934	
623,803	2399,88316	
624,002	2339,67007	
624,201	2397,8069	
624,4	2356,28086	
624,598	2393,65435	
624,797	2584,65729	
624,996	2482,93102	
625,195	2171,47346	
625,393	2192,23969	
625,592	2472,55034	
625,791	2260,76581	
625,989	2489,15939	
626,188	2258,68932	
626,386	2410,26444	
626,585	2499,53995	
626,784	2140,32346	
626,982	2291,91282	
627,181	2323,05906	
627,379	2306,44783	
627,578	2385,34923	
627,776	2304,37141	
627,975	2352,12818	
628,173	2408,18819	
628,371	2254,53632	
628,57	2281,53057	
628,768	2345,89914	
628,967	2273,22471	
629,165	2306,44783	
629,363	2204,69926	
629,562	2387,42552	
629,76	2192,23969	
629,958	2163,16687	
630,157	2088,40508	
630,355	2337,5937	
630,553	2171,47346	
630,751	2169,39681	
630,95	2163,16687	
631,148	2171,47346	
631,346	2308,52424	
631,544	2221,31184	
631,742	2186,00986	
631,94	2067,63711	
632,139	2208,85243	
632,337	2123,70981	
632,535	2109,17269	
632,733	2186,00986	
632,931	2223,38839	
633,129	2107,09594	
633,327	2308,52424	
633,525	2186,00986	
633,723	2202,62268	
633,921	2175,62673	
634,119	2105,01919	
634,317	2094,6354	
634,515	2144,47684	
634,713	2057,253	
634,91	2136,17007	
635,108	2179,77999	
635,306	2260,76581	
635,504	2119,55637	
635,702	2258,68932	
635,9	2119,55637	
636,097	2179,77999	
636,295	2161,09021	
636,493	2065,5603	
636,691	2190,16308	
636,888	2102,94244	
637,086	2150,70688	
637,284	2069,71393	
637,482	2163,16687	
637,679	2266,99528	
637,877	2098,78893	
638,075	2107,09594	
638,272	2152,78355	
638,47	2071,79073	
638,667	2044,79195	
638,865	1967,94604	
639,062	2225,46494	
639,26	2210,929	
639,457	2171,47346	
639,655	2148,6302	
639,852	2053,09933	
640,05	2240,00072	
640,247	2177,70336	
640,445	2171,47346	
640,642	2150,70688	
640,84	2248,3068	
641,037	2100,86569	
641,234	2127,86325	
641,432	2229,61804	
641,629	2248,3068	
641,826	2254,53632	
642,024	2119,55637	
642,221	2073,86754	
642,418	2225,46494	
642,615	2075,94434	
642,813	2192,23969	
643,01	2231,69458	
643,207	2325,13544	
643,404	1999,10037	
643,602	2144,47684	
643,799	2123,70981	
643,996	2021,94637	
644,193	2269,07176	
644,39	2217,15871	
644,587	2198,46949	
644,784	2188,08647	
644,981	2055,17617	
645,178	2173,5501	
645,375	2123,70981	
645,572	2300,21856	
645,769	2217,15871	
645,966	2246,23028	
646,163	2237,92419	
646,36	2129,93996	
646,557	2086,32829	
646,754	2115,40291	
646,951	2034,40765	
647,148	2154,86022	
647,345	2154,86022	
647,542	2177,70336	
647,738	2088,40508	
647,935	2082,17472	
648,132	2229,61804	
648,329	2117,47964	
648,526	2011,56188	
648,722	2121,63309	
648,919	2125,78653	
649,116	2287,75993	
649,312	2073,86754	
649,509	2302,29498	
649,706	2100,86569	
649,902	2098,78893	
650,099	2138,24677	
650,296	2092,55863	
650,492	2073,86754	
650,689	1999,10037	
650,885	2055,17617	
651,082	2167,32017	
651,278	2156,93689	
651,475	2113,32617	
651,671	2167,32017	
651,868	2009,48497	
652,064	2136,17007	
652,261	2051,02249	
652,457	2121,63309	
652,654	2073,86754	
652,85	2090,48185	
653,047	2186,00986	
653,243	2044,79195	
653,439	2188,08647	
653,636	2001,1773	
653,832	2217,15871	
654,028	2098,78893	
654,224	1953,40709	
654,421	2146,55352	
654,617	2036,48452	
654,813	2186,00986	
655,009	1976,25394	
655,206	2024,02326	
655,402	1905,63502	
655,598	1986,63873	
655,794	2078,02114	
655,99	2127,86325	
656,186	1947,17605	
656,383	1922,2516	
656,579	1845,39801	
656,775	1907,71211	
656,971	1882,78685	
657,167	2005,33114	
657,363	1997,02344	
657,559	1774,77149	
657,755	1943,02201	
657,951	2059,32983	
658,147	1868,24688	
658,343	1992,86957	
658,539	1851,62956	
658,735	1849,55238	
658,93	1866,16973	
659,126	1920,17454	
659,322	1841,24362	
659,518	1791,38987	
659,714	1930,55981	
659,91	1843,32082	
660,105	1949,25307	
660,301	1847,4752	
660,497	1839,16642	
660,693	1955,48409	
660,888	1878,63259	
661,084	1992,86957	
661,28	1868,24688	
661,476	1839,16642	
661,671	1668,82394	
661,867	1795,54443	
662,062	1816,317	
662,258	1866,16973	
662,454	1805,93076	
662,649	1853,70674	
662,845	1903,55793	
663,04	1814,23976	
663,236	1830,85759	
663,431	1785,158	
663,627	1720,76019	
663,822	1828,78038	
664,018	1672,97892	
664,213	1697,90851	
664,409	1737,37931	
664,604	1820,47147	
664,799	1691,67616	
664,995	1776,8488	
665,19	1839,16642	
665,386	1733,22455	
665,581	1517,15703	
665,776	1714,52796	
665,972	1704,14083	
666,167	1510,92372	
666,362	1594,03174	
666,557	1681,28884	
666,753	1731,14717	
666,948	1608,57504	
667,143	1616,88541	
667,338	1770,61686	
667,533	1564,94461	
667,728	1643,89373	
667,924	1531,70128	
668,119	1739,45668	
668,314	1492,2236	
668,509	1540,0122	
668,704	1587,79884	
668,899	1672,97892	
669,094	1477,67885	
669,289	1469,36749	
669,484	1440,27724	
669,679	1579,48826	
669,874	1689,59871	
670,069	1479,75669	
670,264	1483,91234	
670,459	1631,42843	
670,654	1442,35514	
670,849	1490,14579	
671,043	1542,08992	
671,238	1465,21178	
671,433	1485,99016	
671,628	1473,52318	
671,823	1618,963	
672,018	1481,83452	
672,212	1423,65391	
672,407	1504,69038	
672,602	1448,58881	
672,797	1346,76786	
672,991	1581,56591	
673,186	1386,25053	
673,381	1583,64356	
673,575	1618,963	
673,77	1496,37921	
673,965	1577,41061	
674,159	1533,77902	
674,354	1498,45701	
674,548	1558,71155	
674,743	1521,31255	
674,937	1458,9782	
675,132	1494,30141	
675,326	1510,92372	
675,521	1469,36749	
675,715	1409,10829	
675,91	1411,18625	
676,104	1434,04352	
676,299	1525,46805	
676,493	1313,51823	
676,687	1319,75261	
676,882	1421,57597	
677,076	1240,78124	
677,271	1315,59636	
677,465	1359,23622	
677,659	1325,98696	
677,853	1409,10829	
678,048	1228,31157	
678,242	1382,09452	
678,436	1465,21178	
678,63	1382,09452	
678,825	1348,84593	
679,019	1400,79643	
679,213	1369,62642	
679,407	1298,97121	
679,601	1452,74458	
679,795	1282,34581	
679,99	1407,03033	
680,184	1288,58037	
680,378	1215,84176	
680,572	1438,19933	
680,766	1386,25053	
680,96	1307,28382	
681,154	1492,2236	
681,348	1481,83452	
681,542	1334,29936	
681,736	1317,67449	
681,93	1402,8744	
682,124	1294,81488	
682,317	1357,15817	
682,511	1311,4401	
682,705	1195,05842	
682,899	1350,924	
683,093	1222,07668	
683,287	1244,93777	
683,481	1342,61171	
683,674	1404,95237	
683,868	1274,03302	
684,062	1217,92007	
684,256	1271,95481	
684,449	1444,43303	
684,643	1213,76344	
684,837	1407,03033	
685,03	1361,31427	
685,224	1230,38986	
685,418	1217,92007	
685,611	1159,72586	
685,805	1336,37746	
685,999	1247,01603	
686,192	1209,6068	
686,386	1124,39217	
686,579	1219,99838	
686,773	1338,45554	
686,966	1163,88269	
687,16	1178,43148	
687,353	1278,18942	
687,547	1321,83073	
687,74	1188,82335	
687,934	1188,82335	
688,127	1234,54642	
688,32	1172,19631	
688,514	1147,25528	
688,707	1209,6068	
688,9	1301,04937	
689,094	1323,90884	
689,287	1097,37151	
689,48	1138,94147	
689,674	1303,12752	
689,867	1165,9611	
690,06	1095,29297	
690,253	1159,72586	
690,447	1247,01603	
690,64	1176,35309	
690,833	1103,60711	
691,026	1367,54838	
691,219	1182,58824	
691,412	1197,13678	
691,605	1228,31157	
691,799	1105,68563	
691,992	1128,54913	
692,185	1128,54913	
692,378	1217,92007	
692,571	1188,82335	
692,764	1288,58037	
692,957	1238,70297	
693,15	1192,98007	
693,343	1049,56409	
693,536	1134,78455	
693,729	1143,09838	
693,921	1192,98007	
694,114	1132,70608	
694,307	1037,09224	
694,5	1057,87858	
694,693	1232,46814	
694,886	1074,50736	
695,079	974,73082	
695,271	1035,01358	
695,464	1045,40682	
695,657	1186,74498	
695,85	1124,39217	
696,042	1041,24954	
696,235	1012,14811	
696,428	1022,54157	
696,62	1059,95719	
696,813	1078,66451	
697,006	1120,23519	
697,198	1084,90021	
697,391	1084,90021	
697,584	1116,07819	
697,776	1043,32818	
697,969	1113,99969	
698,161	1136,86301	
698,354	1028,77759	
698,546	1099,45005	
698,739	1128,54913	
698,931	1222,07668	
699,124	1026,69892	
699,316	1255,32902	
699,509	1028,77759	
699,701	1184,66661	
699,893	1192,98007	
700,086	912,36574	
700,278	1168,03951	
700,47	1205,45014	
700,663	1082,82165	
700,855	1037,09224	
701,047	1022,54157	
701,24	970,57326	
701,432	889,49762	
701,624	1124,39217	
701,816	1026,69892	
702,008	1255,32902	
702,201	1035,01358	
702,393	1010,0694	
702,585	1016,3055	
702,777	1066,193	
702,969	1014,22681	
703,161	1103,60711	
703,353	920,6813	
703,546	1095,29297	
703,738	1037,09224	
703,93	1022,54157	
704,122	1001,75455	
704,314	1022,54157	
704,506	1097,37151	
704,698	1118,15669	
704,89	993,43963	
705,082	1082,82165	
705,273	1122,31368	
705,465	1051,64272	
705,657	1012,14811	
705,849	899,89228	
706,041	983,04589	
706,233	956,02168	
706,425	879,10286	
706,616	980,96713	
706,808	1107,76415	
707	862,47102	
707,192	935,23336	
707,383	926,91792	
707,575	1242,85951	
707,767	937,31221	
707,959	1172,19631	
708,15	870,78697	
708,342	958,10049	
708,534	1012,14811	
708,725	1072,42877	
708,917	1271,95481	
709,108	1043,32818	
709,3	958,10049	
709,491	785,54529	
709,683	964,33689	
709,875	968,49448	
710,066	1124,39217	
710,258	945,62757	
710,449	862,47102	
710,64	852,07598	
710,832	1107,76415	
711,023	866,629	
711,215	1097,37151	
711,406	1035,01358	
711,597	962,2581	
711,789	983,04589	
711,98	1016,3055	
712,171	935,23336	
712,363	1024,62025	
712,554	877,02389	
712,745	1012,14811	
712,937	879,10286	
713,128	1049,56409	
713,319	1057,87858	
713,51	899,89228	
713,701	935,23336	
713,893	985,12464	
714,084	953,94287	
714,275	845,83891	
714,466	953,94287	
714,657	858,31301	
714,848	862,47102	
715,039	1051,64272	
715,23	943,54874	
715,421	968,49448	
715,612	1012,14811	
715,803	960,1793	
715,994	941,4699	
716,185	1062,03579	
716,376	933,15451	
716,567	1180,50986	
716,758	862,47102	
716,949	899,89228	
717,14	1001,75455	
717,331	928,99679	
717,522	1018,3842	
717,712	943,54874	
717,903	912,36574	
718,094	787,62444	
718,285	985,12464	
718,476	899,89228	
718,666	858,31301	
718,857	818,81117	
719,048	781,38697	
719,238	1016,3055	
719,429	1062,03579	
719,62	775,14948	
719,81	833,36466	
720,001	856,23401	
720,192	962,2581	
720,382	881,18182	
720,573	870,78697	
720,763	800,09924	
720,954	706,53447	
721,144	864,55001	
721,335	993,43963	
721,525	806,33659	
721,716	920,6813	
721,906	789,70358	
722,097	789,70358	
722,287	783,46613	
722,478	756,43675	
722,668	852,07598	
722,858	768,91194	
723,049	931,07565	
723,239	816,73208	
723,429	681,5824	
723,62	808,4157	
723,81	849,99696	
724	764,75356	
724,191	754,35754	
724,381	843,75988	
724,571	683,66176	
724,761	829,20654	
724,951	777,22865	
725,142	748,11987	
725,332	596,3248	
725,522	687,82048	
725,712	822,96933	
725,902	762,67436	
726,092	677,42366	
726,282	781,38697	
726,472	719,01027	
726,662	839,6018	
726,852	719,01027	
727,042	687,82048	
727,232	689,89983	
727,422	612,96101	
727,612	860,39202	
727,802	741,88217	
727,992	581,76789	
728,182	756,43675	
728,372	627,51746	
728,562	604,64294	
728,752	700,29651	
728,942	748,11987	
729,131	714,85169	
729,321	758,51596	
729,511	664,94735	
729,701	833,36466	
729,89	756,43675	
730,08	681,5824	
730,27	750,1991	
730,46	648,31201	
730,649	592,16571	
730,839	536,01619	
731,029	627,51746	
731,218	592,16571	
731,408	581,76789	
731,597	708,61378	
731,787	484,02301	
731,977	758,51596	
732,166	712,77239	
732,356	619,19951	
732,545	571,36997	
732,735	662,86794	
732,924	592,16571	
733,114	644,15314	
733,303	662,86794	
733,492	615,04051	
733,682	723,16884	
733,871	600,48388	
734,061	592,16571	
734,25	698,21718	
734,439	673,26491	
734,629	573,44956	
734,818	667,02674	
735,007	704,45515	
735,197	469,46442	
735,386	540,17553	
735,575	602,56341	
735,764	588,00659	
735,954	623,35849	
736,143	550,57379	
736,332	710,69309	
736,521	754,35754	
736,71	536,01619	
736,899	598,40434	
737,088	554,73306	
737,278	650,39144	
737,467	573,44956	
737,656	542,25519	
737,845	818,81117	
738,034	552,65342	
738,223	550,57379	
738,412	698,21718	
738,601	600,48388	
738,79	691,97917	
738,979	525,61778	
739,168	529,77716	
739,356	627,51746	
739,545	700,29651	
739,734	608,80198	
739,923	667,02674	
740,112	656,62971	
740,301	588,00659	
740,489	617,12001	
740,678	463,22495	
740,867	646,23258	
741,056	669,10614	
741,245	590,08615	
741,433	621,279	
741,622	531,85684	
741,811	560,97193	
741,999	696,13785	
742,188	502,74088	
742,377	556,81269	
742,565	619,19951	
742,754	488,18257	
742,942	440,34656	
743,131	592,16571	
743,319	502,74088	
743,508	463,22495	
743,697	598,40434	
743,885	461,14512	
744,073	554,73306	
744,262	300,98438	
744,45	519,37868	
744,639	556,81269	
744,827	413,30776	
745,016	515,21926	
745,204	529,77716	
745,392	621,279	
745,581	615,04051	
745,769	536,01619	
745,957	552,65342	
746,146	598,40434	
746,334	419,54755	
746,522	402,90801	
746,71	492,34211	
746,899	467,3846	
747,087	523,53809	
747,275	546,4145	
747,463	359,22782	
747,651	521,45839	
747,84	467,3846	
748,028	523,53809	
748,216	473,62404	
748,404	425,7873	
748,592	506,90036	
748,78	429,94711	
748,968	577,60874	
749,156	486,10279	
749,344	404,98797	
749,532	473,62404	
749,72	473,62404	
749,908	475,70384	
750,096	425,7873	
750,284	581,76789	
750,472	481,94323	
750,66	473,62404	
750,847	567,21077	
751,035	504,82062	
751,223	477,78364	
751,411	560,97193	
751,599	465,30478	
751,787	413,30776	
751,974	585,92703	
752,162	467,3846	
752,35	338,42701	
752,537	456,98545	
752,725	398,74808	
752,913	355,0677	
753,101	571,36997	
753,288	394,58813	
753,476	556,81269	
753,663	502,74088	
753,851	536,01619	
754,039	477,78364	
754,226	508,98009	
754,414	581,76789	
754,601	500,66114	
754,789	384,18818	
754,976	459,06529	
755,164	504,82062	
755,351	394,58813	
755,539	471,54423	
755,726	496,50163	
755,913	417,46762	
756,101	382,10817	
756,288	442,42644	
756,476	548,49414	
756,663	469,46442	
756,85	484,02301	
757,037	448,66604	
757,225	338,42701	
757,412	286,42294	
757,599	421,62747	
757,787	766,83275	
757,974	315,54558	
758,161	427,86721	
758,348	479,86344	
758,535	511,05982	
758,722	446,58618	
758,91	407,06792	
759,097	367,54801	
759,284	352,98763	
759,471	313,46542	
759,658	269,78102	
759,845	481,94323	
760,032	363,38793	
760,219	446,58618	
760,406	436,1868	
760,593	384,18818	
760,78	452,82575	
760,967	248,97819	
761,154	415,38769	
761,341	334,26679	
761,528	388,34817	
761,715	438,26668	
761,901	278,10202	
762,088	303,06456	
762,275	251,0585	
762,462	336,3469	
762,649	452,82575	
762,835	334,26679	
763,022	446,58618	
763,209	246,89788	
763,396	292,66359	
763,582	429,94711	
763,769	346,74739	
763,956	386,26818	
764,142	348,82747	
764,329	317,62574	
764,516	444,50631	
764,702	411,22782	
764,889	342,58721	
765,075	344,6673	
765,262	317,62574	
765,448	413,30776	
765,635	246,89788	
765,821	288,50316	
766,008	296,82399	
766,194	334,26679	
766,381	377,94815	
766,567	315,54558	
766,754	423,70739	
766,94	348,82747	
767,127	325,9463	
767,313	292,66359	
767,499	390,42816	
767,686	407,06792	
767,872	548,49414	
768,058	330,10656	
768,244	338,42701	
768,431	361,30788	
768,617	282,26249	
768,803	369,62805	
768,989	415,38769	
769,176	282,26249	
769,362	330,10656	
769,548	361,30788	
769,734	317,62574	
769,92	336,3469	
770,106	357,14776	
770,292	419,54755	
770,478	292,66359	
770,664	346,74739	
770,851	300,98438	
771,037	278,10202	
771,223	350,90755	
771,409	375,86813	
771,594	407,06792	
771,78	417,46762	
771,966	417,46762	
772,152	246,89788	
772,338	296,82399	
772,524	444,50631	
772,71	238,5766	
772,896	367,54801	
773,082	303,06456	
773,267	207,3711	
773,453	342,58721	
773,639	244,81757	
773,825	292,66359	
774,011	334,26679	
774,196	253,1388	
774,382	371,70808	
774,568	263,54022	
774,753	280,18226	
774,939	305,14475	
775,125	271,86128	
775,31	278,10202	
775,496	265,62049	
775,681	328,02643	
775,867	323,86617	
776,053	298,90419	
776,238	188,64728	
776,424	394,58813	
776,609	163,68158	
776,795	257,29938	
776,98	286,42294	
777,166	323,86617	
777,351	246,89788	
777,536	323,86617	
777,722	199,04945	
777,907	217,77305	
778,093	273,94153	
778,278	248,97819	
778,463	186,56683	
778,649	269,78102	
778,834	284,34272	
779,019	224,01417	
779,204	257,29938	
779,39	342,58721	
779,575	346,74739	
779,76	284,34272	
779,945	328,02643	
780,13	290,58338	
780,316	300,98438	
780,501	186,56683	
780,686	296,82399	
780,871	238,5766	
781,056	332,18668	
781,241	355,0677	
781,426	355,0677	
781,611	111,66745	
781,796	174,08404	
781,981	261,45995	
782,166	199,04945	
782,351	340,50711	
782,536	280,18226	
782,721	178,24499	
782,906	226,09453	
783,091	111,66745	
783,276	211,5319	
783,461	382,10817	
783,646	263,54022	
783,83	167,84258	
784,015	246,89788	
784,2	221,9338	
784,385	390,42816	
784,57	282,26249	
784,754	321,78603	
784,939	203,21029	
785,124	128,31231	
785,308	257,29938	
785,493	149,11793	
785,678	178,24499	
785,862	296,82399	
786,047	226,09453	
786,232	294,74379	
786,416	57,56949	
786,601	226,09453	
786,785	161,60108	
786,97	259,37967	
787,154	159,52056	
787,339	248,97819	
787,523	292,66359	
787,708	209,4515	
787,892	205,29069	
788,077	321,78603	
788,261	165,76208	
788,446	325,9463	
788,63	221,9338	
788,814	165,76208	
788,999	211,5319	
789,183	169,92307	
789,367	122,07052	
789,552	311,38526	
789,736	282,26249	
789,92	155,35953	
790,104	317,62574	
790,289	182,40592	
790,473	196,96903	
790,657	132,47347	
790,841	174,08404	
791,025	292,66359	
791,21	157,44005	
791,394	161,60108	
791,578	232,33558	
791,762	348,82747	
791,946	163,68158	
792,13	70,05393	
792,314	284,34272	
792,498	211,5319	
792,682	265,62049	
792,866	282,26249	
793,05	205,29069	
793,234	201,12987	
793,418	213,61229	
793,602	257,29938	
793,786	119,98992	
793,97	224,01417	
794,153	172,00356	
794,337	124,15112	
794,521	157,44005	
794,705	134,55405	
794,889	224,01417	
795,073	203,21029	
795,256	199,04945	
795,44	236,49626	
795,624	309,30509	
795,807	290,58338	
795,991	267,70076	
796,175	169,92307	
796,358	309,30509	
796,542	151,19847	
796,726	311,38526	
796,909	159,52056	
797,093	259,37967	
797,277	151,19847	
797,46	163,68158	
797,644	180,32546	
797,827	163,68158	
798,011	13,87252	
798,194	172,00356	
798,378	169,92307	
798,561	248,97819	
798,744	228,17488	
798,928	132,47347	
799,111	78,3768	
799,295	176,16452	
799,478	86,69958	
799,661	130,39289	
799,845	115,8287	
800,028	271,86128	
800,211	230,25524	
800,395	209,4515	
800,578	115,8287	
800,761	182,40592	
800,944	65,89247	
801,127	115,8287	
801,311	30,51925	
801,494	236,49626	
801,677	161,60108	
801,86	95,02228	
802,043	232,33558	
802,226	307,22492	
802,409	234,41593	
802,593	138,71518	
802,776	109,58682	
802,959	169,92307	
803,142	219,85343	
803,325	113,74808	
803,508	103,34491	
803,691	359,22782	
803,874	142,8763	
804,056	209,4515	
804,239	157,44005	
804,422	251,0585	
804,605	113,74808	
804,788	188,64728	
804,971	59,65024	
805,154	199,04945	
805,336	172,00356	
805,519	111,66745	
805,702	153,279	
805,885	142,8763	
806,068	153,279	
806,25	203,21029	
806,433	130,39289	
806,616	138,71518	
806,798	176,16452	
806,981	255,21909	
807,164	234,41593	
807,346	169,92307	
807,529	115,8287	
807,711	113,74808	
807,894	111,66745	
808,076	80,4575	
808,259	159,52056	
808,442	124,15112	
808,624	153,279	
808,806	180,32546	
808,989	165,76208	
809,171	205,29069	
809,354	157,44005	
809,536	313,46542	
809,719	86,69958	
809,901	178,24499	
810,083	182,40592	
810,266	224,01417	
810,448	153,279	
810,63	159,52056	
810,813	221,9338	
810,995	57,56949	
811,177	244,81757	
811,359	196,96903	
811,542	355,0677	
811,724	253,1388	
811,906	124,15112	
812,088	38,84249	
812,27	228,17488	
812,452	36,76169	
812,634	259,37967	
812,817	78,3768	
812,999	232,33558	
813,181	217,77305	
813,363	105,42555	
813,545	230,25524	
813,727	184,48638	
813,909	86,69958	
814,091	180,32546	
814,273	186,56683	
814,455	132,47347	
814,637	109,58682	
814,818	105,42555	
815	45,08487	
815,182	180,32546	
815,364	107,50619	
815,546	88,78026	
815,728	240,65693	
815,909	-11,09818	
816,091	323,86617	
816,273	74,21537	
816,455	253,1388	
816,636	78,3768	
816,818	99,1836	
817	211,5319	
817,182	65,89247	
817,363	176,16452	
817,545	155,35953	
817,726	232,33558	
817,908	217,77305	
818,09	82,5382	
818,271	321,78603	
818,453	103,34491	
818,634	144,95685	
818,816	126,23172	
818,997	111,66745	
819,179	128,31231	
819,36	163,68158	
819,542	92,94161	
819,723	213,61229	
819,905	130,39289	
820,086	196,96903	
820,267	140,79574	
820,449	142,8763	
820,63	136,63462	
820,811	157,44005	
820,993	207,3711	
821,174	369,62805	
821,355	26,35759	
821,536	26,35759	
821,718	99,1836	
821,899	174,08404	
822,08	88,78026	
822,261	188,64728	
822,442	72,13466	
822,624	236,49626	
822,805	119,98992	
822,986	57,56949	
823,167	115,8287	
823,348	-46,47459	
823,529	105,42555	
823,71	159,52056	
823,891	107,50619	
824,072	78,3768	
824,253	147,03739	
824,434	169,92307	
824,615	350,90755	
824,796	248,97819	
824,977	134,55405	
825,158	199,04945	
825,339	-6,93634	
825,52	109,58682	
825,7	194,8886	
825,881	51,3272	
826,062	-4,85543	
826,243	221,9338	
826,424	113,74808	
826,604	109,58682	
826,785	26,35759	
826,966	238,5766	
827,147	70,05393	
827,327	273,94153	
827,508	147,03739	
827,689	59,65024	
827,869	61,73099	
828,05	134,55405	
828,231	53,40797	
828,411	153,279	
828,592	38,84249	
828,772	80,4575	
828,953	47,16565	
829,133	34,68088	
829,314	184,48638	
829,494	115,8287	
829,675	78,3768	
829,855	165,76208	
830,036	80,4575	
830,216	201,12987	
830,396	53,40797	
830,577	180,32546	
830,757	11,79166	
830,938	15,95338	
831,118	80,4575	
831,298	134,55405	
831,479	165,76208	
831,659	196,96903	
831,839	45,08487	
832,019	153,279	
832,199	88,78026	
832,38	174,08404	
832,56	36,76169	
832,74	176,16452	
832,92	101,26426	
833,1	103,34491	
833,28	-21,50285	
833,461	80,4575	
833,641	88,78026	
833,821	134,55405	
834,001	55,48873	
834,181	246,89788	
834,361	111,66745	
834,541	132,47347	
834,721	22,19592	
834,901	70,05393	
835,081	49,24643	
835,261	55,48873	
835,44	90,86094	
835,62	-9,01726	
835,8	97,10295	
835,98	153,279	
836,16	132,47347	
836,34	128,31231	
836,52	65,89247	
836,699	20,11508	
836,879	192,80816	
837,059	149,11793	
837,239	38,84249	
837,418	-21,50285	
837,598	76,29609	
837,778	55,48873	
837,957	-125,55665	
838,137	74,21537	
838,317	-2,77453	
838,496	22,19592	
838,676	-0,69363	
838,855	24,27676	
839,035	265,62049	
839,214	49,24643	
839,394	203,21029	
839,573	15,95338	
839,753	199,04945	
839,932	236,49626	
840,112	-42,31258	
840,291	159,52056	
840,471	194,8886	
840,65	86,69958	
840,829	138,71518	
841,009	232,33558	
841,188	59,65024	
841,367	72,13466	
841,547	92,94161	
841,726	32,60006	
841,905	3,46815	
842,085	67,97321	
842,264	90,86094	
842,443	72,13466	
842,622	157,44005	
842,801	55,48873	
842,981	-27,74572	
843,16	74,21537	
843,339	128,31231	
843,518	199,04945	
843,697	140,79574	
843,876	-100,58255	
844,055	74,21537	
844,234	76,29609	
844,413	107,50619	
844,592	103,34491	
844,771	-4,85543	
844,95	78,3768	
845,129	-77,69029	
845,308	199,04945	
845,487	159,52056	
845,666	59,65024	
845,845	-15,26003	
846,024	7,62991	
846,202	90,86094	
846,381	59,65024	
846,56	109,58682	
846,739	172,00356	
846,918	15,95338	
847,096	82,5382	
847,275	201,12987	
847,454	38,84249	
847,633	224,01417	
847,811	103,34491	
847,99	190,72773	
848,169	67,97321	
848,347	140,79574	
848,526	-29,82668	
848,704	155,35953	
848,883	228,17488	
849,062	109,58682	
849,24	11,79166	
849,419	113,74808	
849,597	-4,85543	
849,776	109,58682	
849,954	43,00408	
850,133	176,16452	
850,311	-9,01726	
850,49	76,29609	
850,668	205,29069	
850,846	43,00408	
851,025	-73,52813	
851,203	11,79166	
851,381	122,07052	
851,56	-9,01726	
851,738	97,10295	
851,916	47,16565	
852,095	59,65024	
852,273	144,95685	
852,451	161,60108	
852,629	144,95685	
852,807	128,31231	
852,986	122,07052	
853,164	76,29609	
853,342	126,23172	
853,52	130,39289	
853,698	80,4575	
853,876	-29,82668	
854,054	221,9338	
854,232	84,61889	
854,41	215,69267	
854,588	45,08487	
854,766	117,90931	
854,944	90,86094	
855,122	-48,5556	
855,3	178,24499	
855,478	51,3272	
855,656	209,4515	
855,834	65,89247	
856,012	26,35759	
856,19	-6,93634	
856,368	76,29609	
856,545	97,10295	
856,723	165,76208	
856,901	159,52056	
857,079	30,51925	
857,256	-69,36599	
857,434	49,24643	
857,612	70,05393	
857,79	-102,6637	
857,967	90,86094	
858,145	95,02228	
858,323	169,92307	
858,5	142,8763	
858,678	140,79574	
858,855	132,47347	
859,033	188,64728	
859,211	30,51925	
859,388	134,55405	
859,566	-25,66476	
859,743	28,43842	
859,921	107,50619	
860,098	57,56949	
860,276	67,97321	
860,453	61,73099	
860,63	43,00408	
860,808	115,8287	
860,985	90,86094	
861,162	122,07052	
861,34	26,35759	
861,517	-40,23158	
861,694	32,60006	
861,872	99,1836	
862,049	49,24643	
862,226	101,26426	
862,403	51,3272	
862,581	28,43842	
862,758	119,98992	
862,935	45,08487	
863,112	105,42555	
863,289	67,97321	
863,467	155,35953	
863,644	9,71079	
863,821	101,26426	
863,998	-25,66476	
864,175	196,96903	
864,352	111,66745	
864,529	192,80816	
864,706	51,3272	
864,883	61,73099	
865,06	20,11508	
865,237	101,26426	
865,414	43,00408	
865,591	5,54903	
865,768	109,58682	
865,944	142,8763	
866,121	18,03423	
866,298	142,8763	
866,475	86,69958	
866,652	188,64728	
866,829	30,51925	
867,005	51,3272	
867,182	-94,33915	
867,359	76,29609	
867,536	36,76169	
867,712	49,24643	
867,889	22,19592	
868,066	136,63462	
868,242	105,42555	
868,419	43,00408	
868,596	128,31231	
868,772	-42,31258	
868,949	155,35953	
869,125	57,56949	
869,302	122,07052	
869,478	18,03423	
869,655	207,3711	
869,831	174,08404	
870,008	36,76169	
870,184	240,65693	
870,361	80,4575	
870,537	11,79166	
870,714	28,43842	
870,89	-69,36599	
871,066	49,24643	
871,243	128,31231	
871,419	38,84249	
871,595	147,03739	
871,772	-71,44706	
871,948	99,1836	
872,124	172,00356	
872,3	36,76169	
872,477	124,15112	
872,653	263,54022	
872,829	103,34491	
873,005	119,98992	
873,181	13,87252	
873,357	28,43842	
873,533	57,56949	
873,71	163,68158	
873,886	163,68158	
874,062	49,24643	
874,238	55,48873	
874,414	57,56949	
874,59	95,02228	
874,766	15,95338	
874,942	194,8886	
875,118	15,95338	
875,294	-75,60921	
875,47	-160,9379	
875,645	65,89247	
875,821	-44,39358	
875,997	149,11793	
876,173	49,24643	
876,349	-17,34097	
876,525	15,95338	
876,7	-25,66476	
876,876	45,08487	
877,052	82,5382	
877,228	207,3711	
877,403	-13,1791	
877,579	90,86094	
877,755	26,35759	
877,931	24,27676	
878,106	40,92329	
878,282	13,87252	
878,457	-38,15059	
878,633	47,16565	
878,809	53,40797	
878,984	-4,85543	
879,16	-0,69363	
879,335	1,38726	
879,511	7,62991	
879,686	-144,28771	
879,862	72,13466	
880,037	15,95338	
880,213	-36,06961	
880,388	-50,63661	
880,563	-67,28493	
880,739	119,98992	
880,914	-50,63661	
881,089	40,92329	
881,265	15,95338	
881,44	-67,28493	
881,615	117,90931	
881,791	70,05393	
881,966	107,50619	
882,141	45,08487	
882,316	86,69958	
882,492	-36,06961	
882,667	92,94161	
882,842	74,21537	
883,017	-11,09818	
883,192	-2,77453	
883,367	128,31231	
883,542	55,48873	
883,718	45,08487	
883,893	82,5382	
884,068	-108,90717	
884,243	47,16565	
884,418	-17,34097	
884,593	-15,26003	
884,768	-9,01726	
884,943	-9,01726	
885,117	70,05393	
885,292	82,5382	
885,467	109,58682	
885,642	11,79166	
885,817	149,11793	
885,992	47,16565	
886,167	199,04945	
886,342	163,68158	
886,516	138,71518	
886,691	169,92307	
886,866	-9,01726	
887,041	119,98992	
887,215	211,5319	
887,39	-0,69363	
887,565	117,90931	
887,739	11,79166	
887,914	30,51925	
888,089	-106,82601	
888,263	15,95338	
888,438	51,3272	
888,612	213,61229	
888,787	-33,98863	
888,962	-44,39358	
889,136	49,24643	
889,311	-6,93634	
889,485	40,92329	
889,659	-58,96073	
889,834	144,95685	
890,008	20,11508	
890,183	-27,74572	
890,357	-100,58255	
890,532	11,79166	
890,706	255,21909	
890,88	92,94161	
891,055	40,92329	
891,229	132,47347	
891,403	122,07052	
891,577	40,92329	
891,752	-61,04177	
891,926	-25,66476	
892,1	53,40797	
892,274	144,95685	
892,449	61,73099	
892,623	40,92329	
892,797	3,46815	
892,971	-19,42191	
893,145	51,3272	
893,319	-61,04177	
893,493	-25,66476	
893,667	80,4575	
893,841	119,98992	
894,015	-19,42191	
894,189	53,40797	
894,363	57,56949	
894,537	-133,88151	
894,711	18,03423	
894,885	161,60108	
895,059	5,54903	
895,233	-21,50285	
895,407	-42,31258	
895,581	130,39289	
895,755	-2,77453	
895,928	-138,04397	
896,102	-56,87969	
896,276	36,76169	
896,45	-29,82668	
896,623	-58,96073	
896,797	-40,23158	
896,971	-23,5838	
897,145	59,65024	
897,318	-52,71763	
897,492	144,95685	
897,666	9,71079	
897,839	-86,01468	
898,013	-31,90765	
898,186	-4,85543	
898,36	-11,09818	
898,534	47,16565	
898,707	-187,99519	
898,881	5,54903	
899,054	-19,42191	
899,228	-46,47459	
899,401	15,95338	
899,574	51,3272	
899,748	-13,1791	
899,921	-29,82668	
900,095	-81,85248	
900,268	24,27676	
900,441	209,4515	
900,615	105,42555	
900,788	-2,77453	
900,961	101,26426	
901,135	-4,85543	
901,308	105,42555	
901,481	82,5382	
901,654	-75,60921	
901,828	-2,77453	
902,001	5,54903	
902,174	-83,93358	
902,347	-13,1791	
902,52	149,11793	
902,693	24,27676	
902,866	199,04945	
903,04	90,86094	
903,213	22,19592	
903,386	-38,15059	
903,559	24,27676	
903,732	-21,50285	
903,905	165,76208	
904,078	-13,1791	
904,251	-36,06961	
904,424	-21,50285	
904,596	-2,77453	
904,769	-33,98863	
904,942	-56,87969	
905,115	40,92329	
905,288	18,03423	
905,461	-13,1791	
905,634	90,86094	
905,806	13,87252	
905,979	-67,28493	
906,152	84,61889	
906,325	80,4575	
906,497	49,24643	
906,67	78,3768	
906,843	-125,55665	
907,015	-69,36599	
907,188	-4,85543	
907,361	7,62991	
907,533	18,03423	
907,706	-63,12282	
907,878	-46,47459	
908,051	1,38726	
908,224	153,279	
908,396	-40,23158	
908,569	-77,69029	
908,741	-19,42191	
908,914	163,68158	
909,086	242,73725	
909,258	55,48873	
909,431	7,62991	
909,603	-79,77138	
909,776	103,34491	
909,948	51,3272	
910,12	57,56949	
910,293	90,86094	
910,465	38,84249	
910,637	97,10295	
910,81	47,16565	
910,982	65,89247	
911,154	15,95338	
911,326	-13,1791	
911,498	-0,69363	
911,671	28,43842	
911,843	-150,53149	
912,015	32,60006	
912,187	-44,39358	
912,359	20,11508	
912,531	-40,23158	
912,703	-4,85543	
912,875	-104,74485	
913,047	32,60006	
913,219	138,71518	
913,391	-94,33915	
913,563	18,03423	
913,735	51,3272	
913,907	186,56683	
914,079	119,98992	
914,251	3,46815	
914,423	-27,74572	
914,595	-11,09818	
914,767	22,19592	
914,939	63,81173	
915,11	92,94161	
915,282	-33,98863	
915,454	28,43842	
915,626	103,34491	
915,797	49,24643	
915,969	134,55405	
916,141	-21,50285	
916,313	-40,23158	
916,484	109,58682	
916,656	15,95338	
916,828	-48,5556	
916,999	67,97321	
917,171	-181,75112	
917,342	-40,23158	
917,514	11,79166	
917,685	109,58682	
917,857	-61,04177	
918,028	-36,06961	
918,2	-40,23158	
918,371	-98,50141	
918,543	34,68088	
918,714	-167,18181	
918,886	28,43842	
919,057	-19,42191	
919,229	1,38726	
919,4	88,78026	
919,571	15,95338	
919,743	-61,04177	
919,914	15,95338	
920,085	18,03423	
920,256	57,56949	
920,428	45,08487	
920,599	90,86094	
920,77	57,56949	
920,941	43,00408	
921,113	74,21537	
921,284	122,07052	
921,455	74,21537	
921,626	45,08487	
921,797	-106,82601	
921,968	99,1836	
922,139	3,46815	
922,31	61,73099	
922,481	59,65024	
922,652	88,78026	
922,823	45,08487	
922,994	-165,1005	
923,165	34,68088	
923,336	22,19592	
923,507	95,02228	
923,678	72,13466	
923,849	-48,5556	
924,02	-27,74572	
924,191	-71,44706	
924,362	-81,85248	
924,532	32,60006	
924,703	72,13466	
924,874	-92,25802	
925,045	13,87252	
925,215	-6,93634	
925,386	-79,77138	
925,557	-4,85543	
925,728	-100,58255	
925,898	-33,98863	
926,069	-11,09818	
926,24	142,8763	
926,41	1,38726	
926,581	-0,69363	
926,751	-25,66476	
926,922	61,73099	
927,092	-90,1769	
927,263	55,48873	
927,433	20,11508	
927,604	-46,47459	
927,774	-65,20387	
927,945	-6,93634	
928,115	149,11793	
928,286	72,13466	
928,456	43,00408	
928,627	-31,90765	
928,797	-2,77453	
928,967	-46,47459	
929,138	78,3768	
929,308	9,71079	
929,478	226,09453	
929,648	-4,85543	
929,819	109,58682	
929,989	134,55405	
930,159	-48,5556	
930,329	22,19592	
930,5	84,61889	
930,67	-44,39358	
930,84	-31,90765	
931,01	-27,74572	
931,18	24,27676	
931,35	-11,09818	
931,52	3,46815	
931,69	30,51925	
931,86	20,11508	
932,03	3,46815	
932,2	40,92329	
932,37	-81,85248	
932,54	32,60006	
932,71	-27,74572	
932,88	55,48873	
933,05	111,66745	
933,22	-2,77453	
933,39	-58,96073	
933,56	132,47347	
933,73	-25,66476	
933,899	-69,36599	
934,069	3,46815	
934,239	24,27676	
934,409	-38,15059	
934,578	20,11508	
934,748	61,73099	
934,918	-27,74572	
935,088	128,31231	
935,257	-31,90765	
935,427	-19,42191	
935,596	59,65024	
935,766	49,24643	
935,936	30,51925	
936,105	30,51925	
936,275	95,02228	
936,444	-127,63785	
936,614	-4,85543	
936,783	53,40797	
936,953	-17,34097	
937,122	80,4575	
937,292	-96,42028	
937,461	55,48873	
937,631	-27,74572	
937,8	161,60108	
937,969	-50,63661	
938,139	18,03423	
938,308	15,95338	
938,477	61,73099	
938,647	-56,87969	
938,816	-50,63661	
938,985	-69,36599	
939,155	-58,96073	
939,324	47,16565	
939,493	9,71079	
939,662	65,89247	
939,831	-13,1791	
940,001	128,31231	
940,17	-25,66476	
940,339	1,38726	
940,508	-75,60921	
940,677	138,71518	
940,846	59,65024	
941,015	99,1836	
941,184	-2,77453	
941,353	-17,34097	
941,522	-108,90717	
941,691	130,39289	
941,86	-96,42028	
942,029	119,98992	
942,198	53,40797	
942,367	24,27676	
942,536	-9,01726	
942,705	1,38726	
942,873	26,35759	
943,042	30,51925	
943,211	-113,06951	
943,38	65,89247	
943,549	-31,90765	
943,717	80,4575	
943,886	-0,69363	
944,055	-61,04177	
944,224	28,43842	
944,392	122,07052	
944,561	-92,25802	
944,73	-75,60921	
944,898	-33,98863	
945,067	84,61889	
945,235	90,86094	
945,404	32,60006	
945,572	95,02228	
945,741	-29,82668	
945,91	9,71079	
946,078	28,43842	
946,247	61,73099	
946,415	-77,69029	
946,583	-31,90765	
946,752	-11,09818	
946,92	-44,39358	
947,089	67,97321	
947,257	-104,74485	
947,425	-15,26003	
947,594	-17,34097	
947,762	-79,77138	
947,93	43,00408	
948,099	5,54903	
948,267	163,68158	
948,435	-38,15059	
948,603	-94,33915	
948,772	-40,23158	
948,94	-17,34097	
949,108	74,21537	
949,276	97,10295	
949,444	45,08487	
949,612	18,03423	
949,78	107,50619	
949,948	-33,98863	
950,116	45,08487	
950,285	55,48873	
950,453	18,03423	
950,621	49,24643	
950,789	-25,66476	
950,957	26,35759	
951,124	11,79166	
951,292	43,00408	
951,46	65,89247	
951,628	-9,01726	
951,796	47,16565	
951,964	-40,23158	
952,132	-44,39358	
952,3	49,24643	
952,467	3,46815	
952,635	20,11508	
952,803	-11,09818	
952,971	-88,09579	
953,138	-4,85543	
953,306	-56,87969	
953,474	97,10295	
953,641	28,43842	
953,809	-102,6637	
953,977	-11,09818	
954,144	34,68088	
954,312	-29,82668	
954,48	80,4575	
954,647	107,50619	
954,815	153,279	
954,982	84,61889	
955,15	59,65024	
955,317	28,43842	
955,485	-4,85543	
955,652	51,3272	
955,82	-61,04177	
955,987	-19,42191	
956,154	38,84249	
956,322	18,03423	
956,489	22,19592	
956,656	-17,34097	
956,824	-108,90717	
956,991	-29,82668	
957,158	67,97321	
957,326	32,60006	
957,493	211,5319	
957,66	65,89247	
957,827	5,54903	
957,994	92,94161	
958,162	-9,01726	
958,329	92,94161	
958,496	-83,93358	
958,663	-79,77138	
958,83	18,03423	
958,997	24,27676	
959,164	-69,36599	
959,331	-9,01726	
959,498	-90,1769	
959,665	-15,26003	
959,832	86,69958	
959,999	-104,74485	
960,166	140,79574	
960,333	105,42555	
960,5	242,73725	
960,667	59,65024	
960,834	-56,87969	
961,001	65,89247	
961,168	-42,31258	
961,334	-15,26003	
961,501	38,84249	
961,668	-27,74572	
961,835	-50,63661	
962,002	-88,09579	
962,168	-98,50141	
962,335	-21,50285	
962,502	-42,31258	
962,668	-9,01726	
962,835	-15,26003	
963,002	-15,26003	
963,168	84,61889	
963,335	28,43842	
963,502	3,46815	
963,668	97,10295	
963,835	34,68088	
964,001	43,00408	
964,168	-102,6637	
964,334	1,38726	
964,501	-46,47459	
964,667	-48,5556	
964,834	-31,90765	
965	-58,96073	
965,166	105,42555	
965,333	13,87252	
965,499	-15,26003	
965,665	134,55405	
965,832	128,31231	
965,998	53,40797	
966,164	-63,12282	
966,331	59,65024	
966,497	-11,09818	
966,663	-140,12521	
966,829	-56,87969	
966,996	155,35953	
967,162	-36,06961	
967,328	-4,85543	
967,494	47,16565	
967,66	-27,74572	
967,826	57,56949	
967,992	-75,60921	
968,158	-36,06961	
968,324	95,02228	
968,491	-50,63661	
968,657	53,40797	
968,823	36,76169	
968,988	-29,82668	
969,154	-40,23158	
969,32	45,08487	
969,486	-48,5556	
969,652	13,87252	
969,818	113,74808	
969,984	-44,39358	
970,15	-48,5556	
970,316	-61,04177	
970,481	-25,66476	
970,647	-33,98863	
970,813	3,46815	
970,979	-19,42191	
971,144	-17,34097	
971,31	-25,66476	
971,476	45,08487	
971,642	-2,77453	
971,807	99,1836	
971,973	45,08487	
972,138	49,24643	
972,304	-23,5838	
972,47	-42,31258	
972,635	-71,44706	
972,801	155,35953	
972,966	-83,93358	
973,132	22,19592	
973,297	-79,77138	
973,463	-90,1769	
973,628	161,60108	
973,794	-21,50285	
973,959	-17,34097	
974,125	-11,09818	
974,29	-48,5556	
974,455	-23,5838	
974,621	-94,33915	
974,786	57,56949	
974,951	11,79166	
975,117	76,29609	
975,282	30,51925	
975,447	65,89247	
975,612	74,21537	
975,778	-102,6637	
975,943	-40,23158	
976,108	144,95685	
976,273	20,11508	
976,438	-4,85543	
976,603	24,27676	
976,768	43,00408	
976,934	-165,1005	
977,099	84,61889	
977,264	59,65024	
977,429	-58,96073	
977,594	-65,20387	
977,759	59,65024	
977,924	-94,33915	
978,089	43,00408	
978,254	74,21537	
978,418	9,71079	
978,583	-52,71763	
978,748	20,11508	
978,913	-36,06961	
979,078	-63,12282	
979,243	76,29609	
979,408	149,11793	
979,572	-81,85248	
979,737	103,34491	
979,902	-56,87969	
980,067	105,42555	
980,231	-54,79866	
980,396	30,51925	
980,561	-94,33915	
980,725	-23,5838	
980,89	-58,96073	
981,055	-123,47544	
981,219	-33,98863	
981,384	74,21537	
981,548	-52,71763	
981,713	65,89247	
981,877	-65,20387	
982,042	53,40797	
982,206	86,69958	
982,371	-29,82668	
982,535	78,3768	
982,7	558,89231	
982,864	-27,74572	
983,029	-44,39358	
983,193	13,87252	
983,357	-19,42191	
983,522	51,3272	
983,686	78,3768	
983,85	-9,01726	
984,015	-13,1791	
984,179	74,21537	
984,343	-11,09818	
984,507	-52,71763	
984,672	153,279	
984,836	9,71079	
985	40,92329	
985,164	-104,74485	
985,328	124,15112	
985,492	34,68088	
985,656	109,58682	
985,821	-21,50285	
985,985	-61,04177	
986,149	-9,01726	
986,313	38,84249	
986,477	1,38726	
986,641	-40,23158	
986,805	61,73099	
986,969	-25,66476	
987,133	-46,47459	
987,296	-73,52813	
987,46	47,16565	
987,624	22,19592	
987,788	36,76169	
987,952	38,84249	
988,116	59,65024	
988,28	-4,85543	
988,443	36,76169	
988,607	-2,77453	
988,771	49,24643	
988,935	67,97321	
989,098	-31,90765	
989,262	-69,36599	
989,426	-46,47459	
989,589	78,3768	
989,753	-48,5556	
989,917	67,97321	
990,08	20,11508	
990,244	84,61889	
990,407	-90,1769	
990,571	59,65024	
990,734	-19,42191	
990,898	55,48873	
991,061	-27,74572	
991,225	84,61889	
991,388	-27,74572	
991,552	90,86094	
991,715	3,46815	
991,878	-158,85661	
992,042	34,68088	
992,205	-63,12282	
992,369	-96,42028	
992,532	47,16565	
992,695	-138,04397	
992,858	-2,77453	
993,022	138,71518	
993,185	-77,69029	
993,348	-29,82668	
993,511	38,84249	
993,675	-25,66476	
993,838	-42,31258	
994,001	-33,98863	
994,164	55,48873	
994,327	11,79166	
994,49	3,46815	
994,653	-54,79866	
994,816	-104,74485	
994,979	90,86094	
995,142	-11,09818	
995,305	-36,06961	
995,468	-52,71763	
995,631	-73,52813	
995,794	-9,01726	
995,957	-46,47459	
996,12	-13,1791	
996,283	182,40592	
996,446	126,23172	
996,609	15,95338	
996,772	117,90931	
996,934	-15,26003	
997,097	-9,01726	
997,26	-52,71763	
997,423	-13,1791	
997,585	-77,69029	
997,748	38,84249	
997,911	-63,12282	
998,074	95,02228	
998,236	-81,85248	
998,399	-50,63661	
998,561	-88,09579	
998,724	51,3272	
998,887	-15,26003	
999,049	72,13466	
999,212	53,40797	
999,374	-69,36599	
999,537	-123,47544	
999,699	-2,77453	
999,862	49,24643	
1000,024	-36,06961	
1000,187	11,79166	
1000,349	34,68088	
1000,512	-42,31258	
1000,674	-67,28493	
1000,836	-38,15059	
1000,999	5,54903	
1001,161	22,19592	
1001,323	-9,01726	
1001,486	-75,60921	
1001,648	-48,5556	
1001,81	-46,47459	
1001,972	-21,50285	
1002,134	-9,01726	
1002,297	49,24643	
1002,459	34,68088	
1002,621	1,38726	
1002,783	-2,77453	
1002,945	-113,06951	
1003,107	-71,44706	
1003,269	43,00408	
1003,432	-11,09818	
1003,594	-46,47459	
1003,756	-31,90765	
1003,918	9,71079	
1004,08	-52,71763	
1004,242	119,98992	
1004,404	55,48873	
1004,565	55,48873	
1004,727	13,87252	
1004,889	-146,36896	
1005,051	-94,33915	
1005,213	128,31231	
1005,375	-21,50285	
1005,537	45,08487	
1005,698	34,68088	
1005,86	-21,50285	
1006,022	122,07052	
1006,184	-31,90765	
1006,345	22,19592	
1006,507	-110,98833	
1006,669	-27,74572	
1006,831	-4,85543	
1006,992	51,3272	
1007,154	-100,58255	
1007,315	-58,96073	
1007,477	11,79166	
1007,639	117,90931	
1007,8	-44,39358	
1007,962	153,279	
1008,123	-117,23186	
1008,285	84,61889	
1008,446	51,3272	
1008,608	-117,23186	
1008,769	126,23172	
1008,931	-58,96073	
1009,092	-31,90765	
1009,253	122,07052	
1009,415	90,86094	
1009,576	-115,15068	
1009,737	-67,28493	
1009,899	109,58682	
1010,06	57,56949	
1010,221	-13,1791	
1010,382	-40,23158	
1010,544	-21,50285	
1010,705	47,16565	
1010,866	194,8886	
1011,027	38,84249	
1011,188	-106,82601	
1011,35	88,78026	
1011,511	7,62991	
1011,672	-23,5838	
1011,833	-71,44706	
1011,994	72,13466	
1012,155	-33,98863	
1012,316	-92,25802	
1012,477	18,03423	
1012,638	-73,52813	
1012,799	45,08487	
1012,96	24,27676	
1013,121	-67,28493	
1013,282	5,54903	
1013,443	184,48638	
1013,604	117,90931	
1013,765	36,76169	
1013,925	32,60006	
1014,086	-29,82668	
1014,247	-48,5556	
1014,408	72,13466	
1014,569	-106,82601	
1014,729	-38,15059	
1014,89	34,68088	
1015,051	30,51925	
1015,211	-83,93358	
1015,372	-31,90765	
1015,533	47,16565	
1015,693	51,3272	
1015,854	-63,12282	
1016,015	103,34491	
1016,175	1,38726	
1016,336	86,69958	
1016,496	-73,52813	
1016,657	76,29609	
1016,817	109,58682	
1016,978	-40,23158	
1017,138	26,35759	
1017,299	92,94161	
1017,459	-48,5556	
1017,62	30,51925	
1017,78	22,19592	
1017,94	55,48873	
1018,101	5,54903	
1018,261	-36,06961	
1018,421	-121,39424	
1018,582	-54,79866	
1018,742	-38,15059	
1018,902	-117,23186	
1019,062	-58,96073	
1019,223	-48,5556	
1019,383	-2,77453	
1019,543	-31,90765	
1019,703	24,27676	
1019,863	-75,60921	
1020,023	-2,77453	
1020,184	82,5382	
1020,344	-52,71763	
1020,504	-108,90717	
1020,664	-67,28493	
1020,824	-33,98863	
1020,984	-100,58255	
1021,144	78,3768	
1021,304	-163,0192	
1021,464	11,79166	
1021,624	99,1836	
1021,784	-25,66476	
1021,943	84,61889	
1022,103	-65,20387	
1022,263	1,38726	
1022,423	-38,15059	
1022,583	28,43842	
1022,743	-52,71763	
1022,902	-94,33915	
1023,062	-23,5838	
1023,222	-15,26003	
1023,382	-77,69029	
1023,541	53,40797	
1023,701	107,50619	
1023,861	5,54903	
1024,02	30,51925	
1024,18	7,62991	
1024,34	-86,01468	
1024,499	49,24643	
1024,659	95,02228	
1024,818	-138,04397	
1024,978	-29,82668	
1025,137	11,79166	
1025,297	28,43842	
1025,456	-27,74572	
1025,616	34,68088	
1025,775	-98,50141	
1025,935	138,71518	
1026,094	47,16565	
1026,254	-54,79866	
1026,413	51,3272	
1026,572	-127,63785	
1026,732	-63,12282	
1026,891	15,95338	
1027,05	38,84249	
1027,21	26,35759	
1027,369	-25,66476	
1027,528	51,3272	
1027,687	65,89247	
1027,846	-83,93358	
1028,006	-110,98833	
1028,165	3,46815	
1028,324	34,68088	
1028,483	-38,15059	
1028,642	-100,58255	
1028,801	49,24643	
1028,96	43,00408	
1029,119	-36,06961	
1029,278	22,19592	
1029,437	-83,93358	
1029,596	-13,1791	
1029,755	-77,69029	
1029,914	20,11508	
1030,073	-9,01726	
1030,232	-17,34097	
1030,391	-73,52813	
1030,55	49,24643	
1030,709	38,84249	
1030,868	-50,63661	
1031,026	-46,47459	
1031,185	-181,75112	
1031,344	90,86094	
1031,503	3,46815	
1031,662	36,76169	
1031,82	-56,87969	
1031,979	1,38726	
1032,138	161,60108	
1032,296	-98,50141	
1032,455	30,51925	
1032,614	147,03739	
1032,772	-2,77453	
1032,931	-40,23158	
1033,089	-6,93634	
1033,248	40,92329	
1033,407	-171,34444	
1033,565	11,79166	
1033,724	-11,09818	
1033,882	5,54903	
1034,04	124,15112	
1034,199	13,87252	
1034,357	-6,93634	
1034,516	-4,85543	
1034,674	61,73099	
1034,832	-0,69363	
1034,991	65,89247	
1035,149	-61,04177	
1035,307	18,03423	
1035,466	47,16565	
1035,624	15,95338	
1035,782	-17,34097	
1035,941	119,98992	
1036,099	-73,52813	
1036,257	-29,82668	
1036,415	61,73099	
1036,573	-29,82668	
1036,731	-61,04177	
1036,889	13,87252	
1037,048	113,74808	
1037,206	-19,42191	
1037,364	-65,20387	
1037,522	-88,09579	
1037,68	-67,28493	
1037,838	-38,15059	
1037,996	-38,15059	
1038,154	-38,15059	
