FLMT00162_1:101		
345,274	-359,37917	
345,493	-359,37917	
345,712	-359,37917	
345,932	-336,47957	
346,151	-20,11555	
346,37	-24,27745	
346,59	-15,95368	
346,809	-126,25038	
347,028	-43,00624	
347,247	40,22969	
347,467	-40,92525	
347,686	88,0867	
347,905	-63,8165	
348,124	77,68323	
348,343	106,81264	
348,563	21,50231	
348,782	19,42146	
349,001	92,24806	
349,22	42,31048	
349,439	-38,84425	
349,658	15,25976	
349,877	29,82564	
350,096	0,69363	
350,315	121,37699	
350,534	225,40107	
350,753	86,00602	
350,972	-38,84425	
351,191	9,01716	
351,41	119,29638	
351,629	154,66602	
351,848	75,60252	
352,067	9,01716	
352,286	108,89328	
352,505	21,50231	
352,724	36,06808	
352,943	-11,79182	
353,162	-3,46816	
353,381	-15,95368	
353,599	73,5218	
353,818	-7,62998	
354,037	169,22958	
354,256	148,42442	
354,475	108,89328	
354,693	177,5515	
354,912	96,40939	
355,131	54,79515	
355,35	61,03741	
355,568	71,44108	
355,787	67,27963	
356,006	48,55284	
356,224	-1,38726	
356,443	67,27963	
356,661	106,81264	
356,88	71,44108	
357,099	-5,54907	
357,317	-5,54907	
357,536	29,82564	
357,754	52,71438	
357,973	73,5218	
358,191	79,76393	
358,41	-11,79182	
358,628	2,77452	
358,847	138,02166	
359,065	31,90646	
359,284	-34,68229	
359,502	65,19889	
359,721	63,11815	
359,939	77,68323	
360,157	123,45759	
360,376	123,45759	
360,594	-38,84425	
360,813	135,94109	
361,031	46,47206	
361,249	98,49005	
361,467	6,93629	
361,686	-45,08725	
361,904	96,40939	
362,122	11,09803	
362,341	48,55284	
362,559	56,87591	
362,777	135,94109	
362,995	131,77995	
363,213	83,92533	
363,431	77,68323	
363,65	148,42442	
363,868	54,79515	
364,086	144,26333	
364,304	54,79515	
364,522	121,37699	
364,74	110,97391	
364,958	56,87591	
365,176	63,11815	
365,394	48,55284	
365,612	61,03741	
365,83	129,69936	
366,048	-13,87274	
366,266	44,39127	
366,484	65,19889	
366,702	71,44108	
366,92	-5,54907	
367,138	13,1789	
367,356	21,50231	
367,574	140,10222	
367,792	56,87591	
368,01	-7,62998	
368,227	140,10222	
368,445	90,16738	
368,663	177,5515	
368,881	81,84463	
369,099	13,1789	
369,316	40,22969	
369,534	65,19889	
369,752	71,44108	
369,97	90,16738	
370,187	2,77452	
370,405	52,71438	
370,623	131,77995	
370,84	86,00602	
371,058	-1,38726	
371,276	54,79515	
371,493	100,57071	
371,711	98,49005	
371,928	104,732	
372,146	-26,35841	
372,364	119,29638	
372,581	121,37699	
372,799	44,39127	
373,016	40,22969	
373,234	181,71244	
373,451	21,50231	
373,669	31,90646	
373,886	79,76393	
374,103	160,90757	
374,321	65,19889	
374,538	73,5218	
374,756	48,55284	
374,973	27,74481	
375,19	17,34061	
375,408	23,58315	
375,625	115,13516	
375,842	-30,52034	
376,06	54,79515	
376,277	146,34388	
376,494	65,19889	
376,712	48,55284	
376,929	108,89328	
377,146	11,09803	
377,363	73,5218	
377,581	77,68323	
377,798	144,26333	
378,015	29,82564	
378,232	0,69363	
378,449	156,74654	
378,666	146,34388	
378,883	50,63361	
379,101	-1,38726	
379,318	13,1789	
379,535	94,32873	
379,752	169,22958	
379,969	50,63361	
380,186	73,5218	
380,403	102,65136	
380,62	-70,05968	
380,837	21,50231	
381,054	179,63197	
381,271	202,51681	
381,488	46,47206	
381,705	27,74481	
381,921	-5,54907	
382,138	173,39055	
382,355	171,31006	
382,572	15,25976	
382,789	71,44108	
383,006	13,1789	
383,223	-38,84425	
383,439	248,28476	
383,656	56,87591	
383,873	31,90646	
384,09	-1,38726	
384,306	63,11815	
384,523	44,39127	
384,74	119,29638	
384,957	77,68323	
385,173	-51,33029	
385,39	52,71438	
385,607	88,0867	
385,823	75,60252	
386,04	9,01716	
386,256	56,87591	
386,473	175,47103	
386,69	40,22969	
386,906	46,47206	
387,123	150,50496	
387,339	19,42146	
387,556	88,0867	
387,772	56,87591	
387,989	69,36036	
388,205	4,85541	
388,422	-61,73545	
388,638	19,42146	
388,855	181,71244	
389,071	29,82564	
389,287	144,26333	
389,504	2,77452	
389,72	117,21577	
389,937	86,00602	
390,153	90,16738	
390,369	200,4364	
390,585	-7,62998	
390,802	79,76393	
391,018	54,79515	
391,234	23,58315	
391,451	25,66398	
391,667	21,50231	
391,883	31,90646	
392,099	19,42146	
392,315	115,13516	
392,532	-15,95368	
392,748	140,10222	
392,964	81,84463	
393,18	38,14889	
393,396	90,16738	
393,612	63,11815	
393,828	15,25976	
394,044	131,77995	
394,26	69,36036	
394,477	-30,52034	
394,693	173,39055	
394,909	94,32873	
395,125	148,42442	
395,341	146,34388	
395,557	96,40939	
395,772	110,97391	
395,988	200,4364	
396,204	2,77452	
396,42	65,19889	
396,636	56,87591	
396,852	88,0867	
397,068	171,31006	
397,284	-32,60131	
397,5	86,00602	
397,715	48,55284	
397,931	2,77452	
398,147	40,22969	
398,363	104,732	
398,578	-3,46816	
398,794	23,58315	
399,01	33,98727	
399,226	152,58549	
399,441	73,5218	
399,657	-67,97862	
399,873	-22,1965	
400,088	-3,46816	
400,304	75,60252	
400,52	160,90757	
400,735	27,74481	
400,951	167,14908	
401,166	127,61878	
401,382	50,63361	
401,597	150,50496	
401,813	29,82564	
402,029	58,95666	
402,244	75,60252	
402,46	196,27555	
402,675	38,14889	
402,89	119,29638	
403,106	71,44108	
403,321	75,60252	
403,537	-18,03461	
403,752	-63,8165	
403,968	25,66398	
404,183	90,16738	
404,398	-32,60131	
404,614	31,90646	
404,829	63,11815	
405,044	25,66398	
405,26	106,81264	
405,475	0,69363	
405,69	81,84463	
405,905	-18,03461	
406,121	63,11815	
406,336	40,22969	
406,551	92,24806	
406,766	98,49005	
406,981	31,90646	
407,196	106,81264	
407,412	-72,14075	
407,627	54,79515	
407,842	165,06858	
408,057	252,44536	
408,272	44,39127	
408,487	75,60252	
408,702	-18,03461	
408,917	81,84463	
409,132	179,63197	
409,347	9,01716	
409,562	29,82564	
409,777	98,49005	
409,992	123,45759	
410,207	-63,8165	
410,422	175,47103	
410,637	65,19889	
410,852	-47,16826	
411,067	40,22969	
411,282	-57,57337	
411,496	4,85541	
411,711	48,55284	
411,926	117,21577	
412,141	94,32873	
412,356	113,05454	
412,571	48,55284	
412,785	-1,38726	
413	25,66398	
413,215	17,34061	
413,429	102,65136	
413,644	61,03741	
413,859	-38,84425	
414,074	17,34061	
414,288	79,76393	
414,503	-28,43937	
414,718	75,60252	
414,932	83,92533	
415,147	0,69363	
415,361	106,81264	
415,576	48,55284	
415,79	9,01716	
416,005	100,57071	
416,22	158,82706	
416,434	115,13516	
416,649	48,55284	
416,863	158,82706	
417,077	104,732	
417,292	42,31048	
417,506	385,57485	
417,721	52,71438	
417,935	275,32836	
418,15	-55,49234	
418,364	146,34388	
418,578	88,0867	
418,793	46,47206	
419,007	67,27963	
419,221	50,63361	
419,436	65,19889	
419,65	61,03741	
419,864	152,58549	
420,078	42,31048	
420,293	158,82706	
420,507	56,87591	
420,721	83,92533	
420,935	17,34061	
421,149	75,60252	
421,364	9,01716	
421,578	48,55284	
421,792	21,50231	
422,006	92,24806	
422,22	229,56179	
422,434	108,89328	
422,648	-43,00624	
422,862	281,56908	
423,076	133,86052	
423,29	44,39127	
423,504	0,69363	
423,718	219,15997	
423,932	11,09803	
424,146	54,79515	
424,36	71,44108	
424,574	138,02166	
424,788	33,98727	
425,002	96,40939	
425,216	210,83843	
425,43	65,19889	
425,644	48,55284	
425,858	33,98727	
426,071	-1,38726	
426,285	92,24806	
426,499	127,61878	
426,713	-9,7109	
426,927	113,05454	
427,14	44,39127	
427,354	258,68624	
427,568	4,85541	
427,782	106,81264	
427,995	127,61878	
428,209	108,89328	
428,423	79,76393	
428,636	15,25976	
428,85	-105,43857	
429,063	108,89328	
429,277	75,60252	
429,491	11,09803	
429,704	31,90646	
429,918	58,95666	
430,131	142,18278	
430,345	79,76393	
430,558	-103,35742	
430,772	181,71244	
430,985	-65,89756	
431,199	138,02166	
431,412	23,58315	
431,626	-72,14075	
431,839	56,87591	
432,053	133,86052	
432,266	115,13516	
432,479	202,51681	
432,693	96,40939	
432,906	169,22958	
433,119	54,79515	
433,333	86,00602	
433,546	246,20444	
433,759	44,39127	
433,973	100,57071	
434,186	106,81264	
434,399	50,63361	
434,612	81,84463	
434,825	146,34388	
435,039	-53,41131	
435,252	44,39127	
435,465	217,07959	
435,678	27,74481	
435,891	56,87591	
436,104	6,93629	
436,318	146,34388	
436,531	113,05454	
436,744	58,95666	
436,957	110,97391	
437,17	-13,87274	
437,383	169,22958	
437,596	61,03741	
437,809	-32,60131	
438,022	92,24806	
438,235	108,89328	
438,448	50,63361	
438,661	146,34388	
438,874	-36,76327	
439,086	63,11815	
439,299	83,92533	
439,512	179,63197	
439,725	52,71438	
439,938	44,39127	
440,151	19,42146	
440,364	-24,27745	
440,576	102,65136	
440,789	67,27963	
441,002	58,95666	
441,215	21,50231	
441,427	-82,54618	
441,64	17,34061	
441,853	125,53819	
442,066	146,34388	
442,278	-18,03461	
442,491	79,76393	
442,704	113,05454	
442,916	88,0867	
443,129	264,92707	
443,341	69,36036	
443,554	102,65136	
443,767	19,42146	
443,979	61,03741	
444,192	140,10222	
444,404	100,57071	
444,617	187,9538	
444,829	92,24806	
445,042	79,76393	
445,254	131,77995	
445,467	-11,79182	
445,679	214,99921	
445,892	117,21577	
446,104	148,42442	
446,316	15,25976	
446,529	69,36036	
446,741	36,06808	
446,953	208,75803	
447,166	-47,16826	
447,378	40,22969	
447,59	121,37699	
447,803	104,732	
448,015	117,21577	
448,227	133,86052	
448,439	19,42146	
448,652	40,22969	
448,864	160,90757	
449,076	88,0867	
449,288	33,98727	
449,5	33,98727	
449,712	69,36036	
449,925	171,31006	
450,137	119,29638	
450,349	63,11815	
450,561	75,60252	
450,773	-28,43937	
450,985	23,58315	
451,197	13,1789	
451,409	2,77452	
451,621	117,21577	
451,833	214,99921	
452,045	152,58549	
452,257	94,32873	
452,469	67,27963	
452,681	50,63361	
452,893	27,74481	
453,105	75,60252	
453,317	117,21577	
453,529	-28,43937	
453,74	58,95666	
453,952	-15,95368	
454,164	63,11815	
454,376	117,21577	
454,588	77,68323	
454,799	138,02166	
455,011	75,60252	
455,223	-138,73772	
455,435	0,69363	
455,646	138,02166	
455,858	-5,54907	
456,07	183,7929	
456,281	33,98727	
456,493	121,37699	
456,705	40,22969	
456,916	96,40939	
457,128	67,27963	
457,34	-11,79182	
457,551	123,45759	
457,763	140,10222	
457,974	48,55284	
458,186	67,27963	
458,397	48,55284	
458,609	81,84463	
458,82	115,13516	
459,032	15,25976	
459,243	212,91882	
459,455	190,03424	
459,666	-18,03461	
459,878	48,55284	
460,089	94,32873	
460,3	86,00602	
460,512	123,45759	
460,723	256,60595	
460,934	144,26333	
461,146	133,86052	
461,357	275,32836	
461,568	160,90757	
461,78	185,87335	
461,991	179,63197	
462,202	29,82564	
462,413	167,14908	
462,625	162,98808	
462,836	100,57071	
463,047	56,87591	
463,258	-1,38726	
463,469	75,60252	
463,68	15,25976	
463,891	88,0867	
464,103	40,22969	
464,314	115,13516	
464,525	38,14889	
464,736	135,94109	
464,947	144,26333	
465,158	81,84463	
465,369	94,32873	
465,58	48,55284	
465,791	83,92533	
466,002	83,92533	
466,213	15,25976	
466,424	38,14889	
466,635	77,68323	
466,846	142,18278	
467,056	-20,11555	
467,267	73,5218	
467,478	36,06808	
467,689	83,92533	
467,9	-11,79182	
468,111	-26,35841	
468,322	56,87591	
468,532	162,98808	
468,743	67,27963	
468,954	264,92707	
469,165	-1,38726	
469,375	102,65136	
469,586	36,06808	
469,797	146,34388	
470,007	148,42442	
470,218	-5,54907	
470,429	83,92533	
470,639	246,20444	
470,85	48,55284	
471,061	-13,87274	
471,271	-28,43937	
471,482	67,27963	
471,692	48,55284	
471,903	19,42146	
472,113	88,0867	
472,324	185,87335	
472,534	46,47206	
472,745	11,09803	
472,955	-57,57337	
473,166	81,84463	
473,376	142,18278	
473,587	-34,68229	
473,797	21,50231	
474,007	96,40939	
474,218	69,36036	
474,428	38,14889	
474,638	110,97391	
474,849	48,55284	
475,059	19,42146	
475,269	179,63197	
475,48	2,77452	
475,69	71,44108	
475,9	23,58315	
476,11	-7,62998	
476,321	244,12413	
476,531	83,92533	
476,741	69,36036	
476,951	127,61878	
477,161	58,95666	
477,371	0,69363	
477,581	21,50231	
477,792	-78,38399	
478,002	46,47206	
478,212	242,04381	
478,422	-45,08725	
478,632	19,42146	
478,842	11,09803	
479,052	31,90646	
479,262	192,11469	
479,472	152,58549	
479,682	150,50496	
479,892	75,60252	
480,102	102,65136	
480,312	83,92533	
480,522	104,732	
480,731	96,40939	
480,941	125,53819	
481,151	9,01716	
481,361	88,0867	
481,571	48,55284	
481,781	148,42442	
481,991	154,66602	
482,2	167,14908	
482,41	-13,87274	
482,62	110,97391	
482,83	86,00602	
483,039	73,5218	
483,249	142,18278	
483,459	104,732	
483,668	88,0867	
483,878	38,14889	
484,088	31,90646	
484,297	25,66398	
484,507	106,81264	
484,716	131,77995	
484,926	115,13516	
485,136	69,36036	
485,345	217,07959	
485,555	40,22969	
485,764	61,03741	
485,974	90,16738	
486,183	217,07959	
486,393	117,21577	
486,602	65,19889	
486,812	175,47103	
487,021	127,61878	
487,23	33,98727	
487,44	-3,46816	
487,649	185,87335	
487,859	179,63197	
488,068	42,31048	
488,277	88,0867	
488,487	61,03741	
488,696	21,50231	
488,905	2,77452	
489,115	88,0867	
489,324	140,10222	
489,533	108,89328	
489,742	294,05039	
489,951	175,47103	
490,161	165,06858	
490,37	23,58315	
490,579	25,66398	
490,788	100,57071	
490,997	-28,43937	
491,206	231,64214	
491,415	98,49005	
491,625	113,05454	
491,834	-57,57337	
492,043	61,03741	
492,252	40,22969	
492,461	-30,52034	
492,67	119,29638	
492,879	233,72248	
493,088	-15,95368	
493,297	277,40861	
493,506	-24,27745	
493,715	250,36506	
493,924	38,14889	
494,132	129,69936	
494,341	108,89328	
494,55	133,86052	
494,759	100,57071	
494,968	135,94109	
495,177	56,87591	
495,386	183,7929	
495,594	63,11815	
495,803	192,11469	
496,012	33,98727	
496,221	23,58315	
496,429	192,11469	
496,638	102,65136	
496,847	96,40939	
497,055	21,50231	
497,264	131,77995	
497,473	100,57071	
497,681	54,79515	
497,89	281,56908	
498,099	65,19889	
498,307	-51,33029	
498,516	233,72248	
498,724	2,77452	
498,933	-18,03461	
499,141	-22,1965	
499,35	69,36036	
499,558	138,02166	
499,767	108,89328	
499,975	131,77995	
500,184	67,27963	
500,392	-7,62998	
500,601	181,71244	
500,809	229,56179	
501,018	81,84463	
501,226	129,69936	
501,434	63,11815	
501,643	61,03741	
501,851	152,58549	
502,059	2,77452	
502,268	181,71244	
502,476	73,5218	
502,684	117,21577	
502,892	246,20444	
503,101	92,24806	
503,309	86,00602	
503,517	90,16738	
503,725	29,82564	
503,933	-76,3029	
504,141	96,40939	
504,35	46,47206	
504,558	27,74481	
504,766	194,19512	
504,974	173,39055	
505,182	156,74654	
505,39	19,42146	
505,598	42,31048	
505,806	113,05454	
506,014	148,42442	
506,222	194,19512	
506,43	33,98727	
506,638	117,21577	
506,846	119,29638	
507,054	94,32873	
507,262	171,31006	
507,47	121,37699	
507,678	42,31048	
507,886	-3,46816	
508,094	146,34388	
508,301	202,51681	
508,509	119,29638	
508,717	146,34388	
508,925	40,22969	
509,133	61,03741	
509,34	83,92533	
509,548	154,66602	
509,756	27,74481	
509,964	148,42442	
510,171	192,11469	
510,379	63,11815	
510,587	69,36036	
510,794	-53,41131	
511,002	27,74481	
511,21	183,7929	
511,417	31,90646	
511,625	221,24034	
511,832	110,97391	
512,04	-115,84441	
512,247	71,44108	
512,455	-84,62728	
512,663	298,21079	
512,87	146,34388	
513,078	158,82706	
513,285	115,13516	
513,492	-38,84425	
513,7	-1,38726	
513,907	102,65136	
514,115	-28,43937	
514,322	40,22969	
514,529	50,63361	
514,737	61,03741	
514,944	83,92533	
515,152	169,22958	
515,359	61,03741	
515,566	250,36506	
515,773	54,79515	
515,981	138,02166	
516,188	-65,89756	
516,395	171,31006	
516,602	100,57071	
516,81	123,45759	
517,017	-22,1965	
517,224	142,18278	
517,431	6,93629	
517,638	50,63361	
517,845	65,19889	
518,053	275,32836	
518,26	33,98727	
518,467	44,39127	
518,674	117,21577	
518,881	131,77995	
519,088	154,66602	
519,295	167,14908	
519,502	117,21577	
519,709	29,82564	
519,916	56,87591	
520,123	123,45759	
520,33	25,66398	
520,537	108,89328	
520,744	98,49005	
520,95	181,71244	
521,157	144,26333	
521,364	158,82706	
521,571	92,24806	
521,778	148,42442	
521,985	173,39055	
522,191	63,11815	
522,398	75,60252	
522,605	-49,24927	
522,812	-34,68229	
523,019	110,97391	
523,225	-84,62728	
523,432	225,40107	
523,639	117,21577	
523,845	90,16738	
524,052	42,31048	
524,259	56,87591	
524,465	33,98727	
524,672	67,27963	
524,878	52,71438	
525,085	-15,95368	
525,292	148,42442	
525,498	108,89328	
525,705	237,88315	
525,911	67,27963	
526,118	225,40107	
526,324	152,58549	
526,531	175,47103	
526,737	235,80282	
526,944	100,57071	
527,15	175,47103	
527,356	71,44108	
527,563	179,63197	
527,769	67,27963	
527,975	50,63361	
528,182	162,98808	
528,388	31,90646	
528,594	140,10222	
528,801	200,4364	
529,007	-7,62998	
529,213	98,49005	
529,42	77,68323	
529,626	65,19889	
529,832	25,66398	
530,038	-11,79182	
530,244	27,74481	
530,451	67,27963	
530,657	40,22969	
530,863	50,63361	
531,069	156,74654	
531,275	-70,05968	
531,481	171,31006	
531,687	81,84463	
531,893	75,60252	
532,099	-47,16826	
532,305	-9,7109	
532,511	11,09803	
532,717	48,55284	
532,923	83,92533	
533,129	17,34061	
533,335	52,71438	
533,541	233,72248	
533,747	6,93629	
533,953	38,14889	
534,159	50,63361	
534,365	100,57071	
534,571	167,14908	
534,777	219,15997	
534,982	23,58315	
535,188	104,732	
535,394	54,79515	
535,6	92,24806	
535,806	138,02166	
536,011	127,61878	
536,217	140,10222	
536,423	86,00602	
536,628	108,89328	
536,834	-51,33029	
537,04	79,76393	
537,245	27,74481	
537,451	117,21577	
537,657	-3,46816	
537,862	19,42146	
538,068	15,25976	
538,273	42,31048	
538,479	175,47103	
538,685	56,87591	
538,89	67,27963	
539,096	77,68323	
539,301	-3,46816	
539,507	-15,95368	
539,712	69,36036	
539,917	117,21577	
540,123	283,64931	
540,328	31,90646	
540,534	125,53819	
540,739	175,47103	
540,944	50,63361	
541,15	162,98808	
541,355	6,93629	
541,56	133,86052	
541,766	113,05454	
541,971	92,24806	
542,176	-43,00624	
542,382	148,42442	
542,587	142,18278	
542,792	119,29638	
542,997	71,44108	
543,202	106,81264	
543,408	56,87591	
543,613	63,11815	
543,818	96,40939	
544,023	15,25976	
544,228	165,06858	
544,433	77,68323	
544,638	48,55284	
544,843	144,26333	
545,049	40,22969	
545,254	131,77995	
545,459	42,31048	
545,664	36,06808	
545,869	192,11469	
546,074	115,13516	
546,279	6,93629	
546,483	67,27963	
546,688	-7,62998	
546,893	129,69936	
547,098	106,81264	
547,303	61,03741	
547,508	121,37699	
547,713	67,27963	
547,918	27,74481	
548,122	-18,03461	
548,327	104,732	
548,532	165,06858	
548,737	104,732	
548,942	58,95666	
549,146	56,87591	
549,351	19,42146	
549,556	61,03741	
549,76	81,84463	
549,965	129,69936	
550,17	52,71438	
550,374	125,53819	
550,579	42,31048	
550,784	244,12413	
550,988	90,16738	
551,193	50,63361	
551,397	104,732	
551,602	142,18278	
551,806	29,82564	
552,011	131,77995	
552,215	108,89328	
552,42	-1,38726	
552,624	71,44108	
552,829	61,03741	
553,033	36,06808	
553,238	54,79515	
553,442	-5,54907	
553,646	56,87591	
553,851	75,60252	
554,055	171,31006	
554,26	90,16738	
554,464	133,86052	
554,668	81,84463	
554,872	33,98727	
555,077	-5,54907	
555,281	115,13516	
555,485	83,92533	
555,69	106,81264	
555,894	133,86052	
556,098	192,11469	
556,302	86,00602	
556,506	113,05454	
556,71	106,81264	
556,915	54,79515	
557,119	121,37699	
557,323	-28,43937	
557,527	61,03741	
557,731	98,49005	
557,935	223,32071	
558,139	86,00602	
558,343	44,39127	
558,547	167,14908	
558,751	190,03424	
558,955	65,19889	
559,159	113,05454	
559,363	233,72248	
559,567	63,11815	
559,771	148,42442	
559,975	90,16738	
560,179	2,77452	
560,382	258,68624	
560,586	223,32071	
560,79	77,68323	
560,994	61,03741	
561,198	158,82706	
561,402	117,21577	
561,605	131,77995	
561,809	13,1789	
562,013	217,07959	
562,217	46,47206	
562,42	129,69936	
562,624	165,06858	
562,828	2,77452	
563,031	225,40107	
563,235	19,42146	
563,439	44,39127	
563,642	77,68323	
563,846	33,98727	
564,049	-3,46816	
564,253	121,37699	
564,456	150,50496	
564,66	125,53819	
564,863	133,86052	
565,067	90,16738	
565,27	-9,7109	
565,474	96,40939	
565,677	150,50496	
565,881	171,31006	
566,084	-38,84425	
566,288	119,29638	
566,491	31,90646	
566,694	63,11815	
566,898	90,16738	
567,101	125,53819	
567,304	83,92533	
567,508	110,97391	
567,711	310,69187	
567,914	98,49005	
568,118	138,02166	
568,321	121,37699	
568,524	200,4364	
568,727	150,50496	
568,93	81,84463	
569,134	44,39127	
569,337	27,74481	
569,54	183,7929	
569,743	100,57071	
569,946	110,97391	
570,149	158,82706	
570,352	246,20444	
570,555	125,53819	
570,758	113,05454	
570,962	88,0867	
571,165	92,24806	
571,368	69,36036	
571,571	183,7929	
571,774	127,61878	
571,976	210,83843	
572,179	262,8468	
572,382	183,7929	
572,585	125,53819	
572,788	17,34061	
572,991	183,7929	
573,194	135,94109	
573,397	96,40939	
573,6	162,98808	
573,802	179,63197	
574,005	142,18278	
574,208	104,732	
574,411	181,71244	
574,613	198,35598	
574,816	210,83843	
575,019	138,02166	
575,222	119,29638	
575,424	123,45759	
575,627	181,71244	
575,83	150,50496	
576,032	169,22958	
576,235	179,63197	
576,438	231,64214	
576,64	127,61878	
576,843	321,09265	
577,045	-61,73545	
577,248	152,58549	
577,45	173,39055	
577,653	196,27555	
577,855	252,44536	
578,058	277,40861	
578,26	275,32836	
578,463	177,5515	
578,665	281,56908	
578,868	187,9538	
579,07	142,18278	
579,272	167,14908	
579,475	187,9538	
579,677	185,87335	
579,879	302,37117	
580,082	296,13059	
580,284	162,98808	
580,486	94,32873	
580,689	88,0867	
580,891	267,00734	
581,093	264,92707	
581,295	131,77995	
581,498	104,732	
581,7	206,67763	
581,902	254,52566	
582,104	298,21079	
582,306	298,21079	
582,508	169,22958	
582,71	410,5345	
582,913	314,8522	
583,115	177,5515	
583,317	335,65353	
583,519	304,45135	
583,721	225,40107	
583,923	289,88997	
584,125	354,37434	
584,327	296,13059	
584,529	373,09477	
584,731	366,85467	
584,933	306,53153	
585,135	356,45441	
585,336	244,12413	
585,538	368,93471	
585,74	429,25381	
585,942	302,37117	
586,144	298,21079	
586,346	279,48885	
586,547	321,09265	
586,749	323,17279	
586,951	308,6117	
587,153	269,0876	
587,355	314,8522	
587,556	331,4933	
587,758	373,09477	
587,96	437,57339	
588,161	395,97478	
588,363	352,29427	
588,565	331,4933	
588,766	385,57485	
588,968	447,97275	
589,17	460,45184	
589,371	412,61445	
589,573	298,21079	
589,774	387,65484	
589,976	335,65353	
590,177	379,33483	
590,379	464,6115	
590,58	360,61452	
590,782	356,45441	
590,983	566,51756	
591,185	348,13411	
591,386	568,59717	
591,587	383,49484	
591,789	381,41484	
591,99	400,13473	
592,192	502,04763	
592,393	371,01474	
592,594	354,37434	
592,796	385,57485	
592,997	404,29465	
593,198	375,17479	
593,399	452,13247	
593,601	543,64163	
593,802	491,64885	
594,003	472,93077	
594,204	516,60573	
594,405	466,69133	
594,607	487,48931	
594,808	445,89289	
595,009	581,0747	
595,21	504,12737	
595,411	541,56197	
595,612	518,68544	
595,813	576,91554	
596,014	589,39297	
596,215	589,39297	
596,416	520,76515	
596,617	512,4463	
596,818	628,90377	
597,019	535,32297	
597,22	622,66533	
597,421	722,47574	
597,622	593,55207	
597,823	747,4268	
598,024	549,88057	
598,225	606,02929	
598,426	585,23384	
598,627	753,66447	
598,827	730,79283	
599,028	662,17481	
599,229	759,9021	
599,43	608,10881	
599,63	764,0605	
599,831	826,43445	
600,032	759,9021	
600,233	890,88358	
600,433	741,18909	
600,634	868,01499	
600,835	840,98783	
601,035	728,71356	
601,236	878,40987	
601,437	849,30395	
601,637	737,0306	
601,838	820,19723	
602,038	863,85701	
602,239	822,2763	
602,439	932,46156	
602,64	818,11814	
602,841	976,11667	
603,041	818,11814	
603,241	897,12038	
603,442	890,88358	
603,642	874,25193	
603,843	957,40756	
604,043	845,1459	
604,244	955,32874	
604,444	845,1459	
604,644	932,46156	
604,845	1019,76999	
605,045	1096,67866	
605,245	988,58923	
605,446	1075,89308	
605,646	1098,7572	
605,846	1096,67866	
606,046	1063,42153	
606,247	1063,42153	
606,447	1132,01326	
606,647	1077,97165	
606,847	1100,83573	
607,047	1134,09173	
607,248	1275,41849	
607,448	1235,93194	
607,648	1017,6913	
607,848	1202,67902	
608,048	1210,99235	
608,248	1281,65308	
608,448	1383,47986	
608,648	1464,51916	
608,848	1383,47986	
609,048	1366,85571	
609,248	1343,9971	
609,448	1452,05195	
609,648	1398,0258	
609,848	1406,33768	
610,048	1381,40186	
610,248	1445,81829	
610,448	1508,15335	
610,648	1506,07557	
610,847	1555,9413	
611,047	1576,71806	
611,247	1499,84221	
611,447	1510,23113	
611,647	1564,25205	
611,846	1738,76423	
612,046	1628,65835	
612,246	1580,87336	
612,446	1803,16108	
612,645	1767,8471	
612,845	1805,23834	
613,045	1807,3156	
613,244	1826,01075	
613,444	1869,63165	
613,644	1898,71138	
613,843	1963,09974	
614,043	2017,10029	
614,243	1915,32805	
614,442	2056,56073	
614,642	1988,02337	
614,841	2008,79266	
615,041	2060,71438	
615,24	2071,09846	
615,44	2303,67927	
615,639	2316,13774	
615,839	2347,28338	
616,038	2322,36693	
616,237	2415,80109	
616,437	2357,66509	
616,636	2417,87733	
616,836	2303,67927	
617,035	2424,10601	
617,234	2451,09665	
617,434	2637,93925	
617,633	2567,35747	
617,832	2635,86337	
618,032	2650,39445	
618,231	2654,54616	
618,43	2797,77188	
618,629	2783,24246	
618,828	2905,69959	
619,028	2862,11449	
619,227	2909,85047	
619,426	2837,20805	
619,625	2965,88612	
619,824	3011,543	
620,023	2963,81077	
620,222	2955,50934	
620,422	2972,11216	
620,621	3198,30436	
620,82	2868,34102	
621,019	3028,14511	
621,218	3144,35385	
621,417	3165,10431	
621,616	3248,10282	
621,815	3063,42387	
622,014	3129,82833	
622,213	3250,17772	
622,411	3302,04899	
622,61	3542,70434	
622,809	3443,12829	
623,008	3488,76827	
623,207	3723,16616	
623,406	3640,19838	
623,605	3465,94848	
623,803	3731,46264	
624,002	3725,24028	
624,201	3702,42472	
624,4	3756,35175	
624,598	3893,23311	
624,797	3988,62647	
624,996	4075,71838	
625,195	3990,70015	
625,393	3913,97142	
625,592	4206,3448	
625,791	3955,44699	
625,989	4206,3448	
626,188	4204,27147	
626,386	4332,81112	
626,585	4577,4135	
626,784	4270,6162	
626,982	4403,29486	
627,181	4581,55887	
627,379	4513,15837	
627,578	4589,84957	
627,776	4672,75343	
627,975	4867,5545	
628,173	4840,61587	
628,371	4913,14154	
628,57	4861,33795	
628,768	4898,63677	
628,967	4925,57406	
629,165	5292,27219	
629,363	4952,51071	
629,562	5240,48592	
629,76	5205,26988	
629,958	5199,05517	
630,157	5161,76618	
630,355	5426,90515	
630,553	5451,75865	
630,751	5598,79691	
630,95	5691,97974	
631,148	5718,8977	
631,346	5822,42192	
631,544	5781,01346	
631,742	5741,67391	
631,94	5888,67204	
632,139	5909,37433	
632,337	6163,97835	
632,535	6279,87434	
632,733	6174,32675	
632,931	6387,4799	
633,129	6381,27221	
633,327	6468,17632	
633,525	6546,79713	
633,723	6526,10806	
633,921	6646,09842	
634,119	6699,88229	
634,317	6917,05499	
634,515	6774,34719	
634,713	7041,13076	
634,91	7096,95934	
635,108	6970,82322	
635,306	7208,60611	
635,504	7355,37964	
635,702	7390,51897	
635,9	7260,28971	
636,097	7735,63525	
636,295	7754,23036	
636,493	7683,98001	
636,691	7812,07919	
636,888	7756,29646	
637,086	7952,5525	
637,284	7985,60158	
637,482	8024,84563	
637,679	8254,07568	
637,877	8074,41437	
638,075	8386,21462	
638,272	8468,79027	
638,47	8477,04735	
638,667	8623,59612	
638,865	8625,65999	
639,062	8648,3622	
639,26	9275,49994	
639,457	8974,37412	
639,655	9139,38972	
639,852	9226,00822	
640,05	9357,9787	
640,247	9333,23605	
640,445	9553,82821	
640,642	9504,35546	
640,84	9634,21417	
641,037	9560,01207	
641,234	9844,41142	
641,432	9986,56813	
641,629	10040,12692	
641,826	10332,56707	
642,024	10003,0482	
642,221	10449,9199	
642,418	10371,68693	
642,615	10748,35716	
642,813	10577,54376	
643,01	10762,76112	
643,207	10995,23891	
643,404	11001,40977	
643,602	10921,18404	
643,799	10964,38372	
643,996	11262,58986	
644,193	11242,02828	
644,39	11385,94572	
644,587	11813,39725	
644,784	11655,19107	
644,981	11638,75183	
645,178	11994,15642	
645,375	12332,94142	
645,572	12033,17724	
645,769	12394,51922	
645,966	12341,15214	
646,163	12497,13553	
646,36	12622,3048	
646,557	12866,41577	
646,754	12907,4335	
646,951	12847,95691	
647,148	12954,60059	
647,345	13356,40215	
647,542	13163,73357	
647,738	13553,10892	
647,935	13751,80204	
648,132	13706,74314	
648,329	13854,1966	
648,526	13917,67286	
648,722	14005,70996	
648,919	14351,59722	
649,116	14370,01195	
649,312	14439,57387	
649,509	14711,61073	
649,706	14879,27503	
649,902	14817,93951	
650,099	14995,79642	
650,296	15104,12202	
650,492	15124,55878	
650,689	15302,33154	
650,885	15308,46077	
651,082	15700,61293	
651,278	15778,19892	
651,475	15727,15652	
651,671	15947,63185	
651,868	16170,0758	
652,064	16647,37398	
652,261	16380,20885	
652,457	16796,20852	
652,654	16751,35754	
652,85	16824,7486	
653,047	17091,74779	
653,243	17317,90804	
653,439	17309,7593	
653,636	17544,00045	
653,832	17495,12127	
654,028	18160,83941	
654,224	17786,31429	
654,421	18242,23526	
654,617	17914,56797	
654,813	18346,00353	
655,009	18256,47872	
655,206	18561,63846	
655,402	18785,35451	
655,598	18860,59195	
655,794	18937,85642	
655,99	19149,28447	
656,186	19025,27953	
656,383	19287,50068	
656,579	19374,89209	
656,775	19681,71874	
656,971	19673,59204	
657,167	20703,19235	
657,363	20039,23345	
657,559	20045,32646	
657,755	20443,33578	
657,951	20849,33979	
658,147	20628,08279	
658,343	21214,64466	
658,539	20997,50183	
658,735	21663,04635	
658,93	21561,60782	
659,126	21431,75837	
659,322	21310,01581	
659,518	21604,21266	
659,714	21510,88648	
659,91	22275,63087	
660,105	22559,55974	
660,301	22612,28651	
660,497	22482,49599	
660,693	23052,32403	
660,888	23208,45669	
661,084	23212,51203	
661,28	23007,71391	
661,476	23786,3265	
661,671	23433,52498	
661,867	23662,64382	
662,062	23757,94034	
662,258	24522,35482	
662,454	23942,45052	
662,649	24512,21625	
662,845	24538,57656	
663,04	24637,93584	
663,236	24948,19459	
663,431	25059,73188	
663,627	25075,9558	
663,822	25248,34042	
664,018	25925,82713	
664,213	26061,75708	
664,409	25499,83884	
664,604	26481,78854	
664,799	25952,20081	
664,995	26688,80285	
665,19	26698,95139	
665,386	26946,59933	
665,581	26796,38116	
665,776	27220,69207	
665,972	27147,59465	
666,167	27261,3037	
666,362	27308,00882	
666,557	28045,40434	
666,753	27933,64364	
666,948	27888,94293	
667,143	28173,43714	
667,338	28549,50971	
667,533	28553,57623	
667,728	28765,06202	
667,924	28718,28656	
668,119	29540,3076	
668,314	29351,00227	
668,509	29397,81523	
668,704	29418,16961	
668,899	29984,25042	
669,094	29690,97264	
669,289	30293,95777	
669,484	29982,21334	
669,679	30962,77867	
669,874	30247,08493	
670,069	30797,54614	
670,264	30320,45259	
670,459	31164,79072	
670,654	30968,89925	
670,849	31648,67754	
671,043	31246,43118	
671,238	31689,53055	
671,433	31908,14483	
671,628	32132,97884	
671,823	31740,60099	
672,018	32623,85298	
672,212	32464,26886	
672,407	32951,35929	
672,602	32822,37869	
672,797	33121,33634	
672,991	32904,26734	
673,186	33365,13937	
673,381	33428,67085	
673,575	34261,50272	
673,77	33902,3449	
673,965	34265,60897	
674,159	34193,75477	
674,354	34101,38704	
674,548	35180,16741	
674,743	35297,44758	
674,937	34824,40068	
675,132	35188,39658	
675,326	35054,69135	
675,521	34953,92465	
675,715	35381,82626	
675,91	35964,68999	
676,104	35591,81433	
676,299	36401,84093	
676,493	36360,58105	
676,687	36513,26277	
676,882	36643,29226	
677,076	37097,68172	
677,271	36469,92856	
677,465	37556,71013	
677,659	36930,32593	
677,853	37906,49803	
678,048	37608,43487	
678,242	38010,04372	
678,436	37759,50886	
678,63	38123,97485	
678,825	38426,56789	
679,019	38521,95313	
679,213	38623,58443	
679,407	39038,67811	
679,601	39034,525	
679,795	39161,21475	
679,99	39325,34958	
680,184	40049,20432	
680,378	39400,16819	
680,572	40030,46674	
680,766	39628,87022	
680,96	40163,73168	
681,154	40155,40126	
681,348	41014,39909	
681,542	39818,17169	
681,736	40907,96048	
681,93	40622,18659	
682,124	40872,48766	
682,317	40968,48068	
682,511	41208,57116	
682,705	41699,67421	
682,899	41800,06511	
683,093	41549,13923	
683,287	41756,14071	
683,481	41678,76289	
683,674	42084,65559	
683,868	41984,18656	
684,062	42574,841	
684,256	42237,50543	
684,449	43399,61457	
684,643	42327,57043	
684,837	43540,41741	
685,03	42958,65743	
685,224	43279,87163	
685,418	43500,48248	
685,611	43839,02384	
685,805	43622,40345	
685,999	43952,64611	
686,192	43794,84751	
686,386	43967,37767	
686,579	44327,44589	
686,773	44727,97131	
686,966	44426,47886	
687,16	45080,40973	
687,353	44652,04556	
687,547	45390,95329	
687,74	44818,68308	
687,934	45930,36225	
688,127	45044,51555	
688,32	45769,50167	
688,514	45437,45475	
688,707	46000,23517	
688,9	45824,52371	
689,094	46347,71473	
689,287	45722,952	
689,48	45943,06526	
689,674	46267,1665	
689,867	46445,2487	
690,06	46559,78483	
690,253	46606,46005	
690,447	46712,5669	
690,64	47577,69299	
690,833	46689,22019	
691,026	47941,95083	
691,219	47207,52253	
691,412	48138,12311	
691,605	47407,44061	
691,799	47997,37667	
691,992	47347,87612	
692,185	48342,97484	
692,378	47918,50477	
692,571	49204,66019	
692,764	47899,3231	
692,957	48763,83926	
693,15	48238,39578	
693,343	49084,74996	
693,536	48659,09457	
693,729	48823,71227	
693,921	49101,87651	
694,114	49416,78491	
694,307	49044,07903	
694,5	49817,96621	
694,693	49702,04868	
694,886	49734,24237	
695,079	49682,73453	
695,271	49779,32079	
695,464	49358,91476	
695,657	50447,9277	
695,85	50125,20754	
696,042	49961,8684	
696,235	50168,21061	
696,428	50659,02137	
696,62	50508,21977	
696,813	50958,77833	
697,006	49921,05141	
697,198	51300,02106	
697,391	50747,39593	
697,584	51112,05311	
697,776	51038,6401	
697,969	50743,08414	
698,161	51542,25517	
698,354	51010,57715	
698,546	51289,21371	
698,739	51667,8118	
698,931	51592,03547	
699,124	51910,4911	
699,316	51060,22952	
699,509	51317,31401	
699,701	51791,28081	
699,893	51984,22128	
700,086	51527,10709	
700,278	52003,7428	
700,47	52118,74322	
700,663	52270,7374	
700,855	51979,88343	
701,047	52394,59527	
701,24	52129,59589	
701,432	52133,93714	
701,624	52153,47396	
701,816	52559,86863	
702,008	52407,63776	
702,201	52361,99309	
702,393	52307,66884	
702,585	52934,46931	
702,777	52420,68117	
702,969	53469,45965	
703,161	52559,86863	
703,353	53222,49884	
703,546	52747,07035	
703,738	52816,77692	
703,93	52368,51306	
704,122	53721,17277	
704,314	53065,33193	
704,506	53146,08015	
704,698	53697,0789	
704,89	52464,16588	
705,082	52947,55113	
705,273	53410,41796	
705,465	53427,90959	
705,657	53751,84294	
705,849	52320,70521	
706,041	53119,88737	
706,233	52805,88346	
706,425	53631,38671	
706,616	53403,85908	
706,808	53697,0789	
707	53218,13113	
707,192	53602,9284	
707,383	53028,24414	
707,575	53841,69674	
707,767	53966,70056	
707,959	54206,02382	
708,15	53640,14412	
708,342	54188,44609	
708,534	54153,29671	
708,725	53419,16355	
708,917	53611,68427	
709,108	53955,73131	
709,3	54388,51381	
709,491	53624,81896	
709,683	54074,24017	
709,875	54315,93097	
710,066	53351,39733	
710,258	54785,05273	
710,449	53458,52441	
710,64	53857,04273	
710,832	54206,02382	
711,023	54219,20845	
711,215	54076,43563	
711,406	53349,21178	
711,597	53933,79515	
711,789	54287,3474	
711,98	54276,35516	
712,171	53986,44714	
712,363	53982,05879	
712,554	54050,09211	
712,745	53718,98227	
712,937	53655,47074	
713,128	53984,25295	
713,319	53986,44714	
713,51	53732,12573	
713,701	53732,12573	
713,893	54241,1854	
714,084	53905,28272	
714,275	54265,36373	
714,466	54155,49331	
714,657	53975,47651	
714,848	53769,3714	
715,039	53366,69696	
715,23	54529,38186	
715,421	53692,69859	
715,612	53949,15014	
715,803	53819,77649	
715,994	53797,85926	
716,185	54063,26331	
716,376	53824,16029	
716,567	53559,15612	
716,758	54282,95041	
716,949	53198,47783	
717,14	53944,76284	
717,331	53478,20836	
717,522	53846,08116	
717,712	53572,28656	
717,903	53988,64136	
718,094	53351,39733	
718,285	54137,92141	
718,476	53183,1935	
718,666	53659,85004	
718,857	53780,32767	
719,048	52901,76905	
719,238	53194,11073	
719,429	52975,89845	
719,62	53087,15202	
719,81	53067,51382	
720,001	52599,03428	
720,192	53106,79248	
720,382	52862,53681	
720,573	53154,81198	
720,763	52477,2133	
720,954	52853,81972	
721,144	52919,20843	
721,335	52792,81219	
721,525	52425,02918	
721,716	53517,58335	
721,906	52744,89246	
722,097	52385,9008	
722,287	52318,53242	
722,478	52275,08189	
722,668	51784,78052	
722,858	51561,73295	
723,049	52216,43969	
723,239	52038,45263	
723,429	52003,7428	
723,62	52383,72724	
723,81	51509,79639	
724	51131,49024	
724,191	50840,11989	
724,381	51522,77928	
724,571	51088,29905	
724,761	50490,9918	
724,951	50323,08835	
725,142	51473,01605	
725,332	50583,60775	
725,522	50512,52696	
725,712	50331,69575	
725,902	50071,46492	
726,092	50157,45909	
726,282	49985,50252	
726,472	49839,4386	
726,662	50110,15835	
726,852	49133,99191	
727,042	49764,29371	
727,232	49365,3441	
727,422	49365,3441	
727,612	49354,62862	
727,802	49301,05811	
727,992	49114,72218	
728,182	48958,47723	
728,372	48530,89259	
728,562	49290,34539	
728,752	48498,8518	
728,942	48793,77404	
729,131	48089,06692	
729,321	48289,61312	
729,511	47946,21396	
729,701	48439,05264	
729,89	48667,64358	
730,08	48571,48315	
730,27	48219,19177	
730,46	47775,73954	
730,649	47739,5271	
730,839	47743,78714	
731,029	47839,65525	
731,218	47562,79185	
731,408	47367,02051	
731,597	47424,4613	
731,787	47252,17314	
731,977	47335,11389	
732,166	47435,09974	
732,356	47286,19725	
732,545	47339,3679	
732,735	46850,56176	
732,924	46072,24174	
733,114	47026,86343	
733,303	46307,43798	
733,492	47122,49263	
733,682	46589,48641	
733,871	46642,5322	
734,061	46068,0056	
734,25	46547,05646	
734,439	45983,29485	
734,629	45824,52371	
734,818	46197,23377	
735,007	46233,25775	
735,197	46002,35277	
735,386	45551,62315	
735,575	45885,90574	
735,764	45192,34032	
735,954	45452,25208	
736,143	45302,19633	
736,332	45560,08168	
736,521	45591,80316	
736,71	44784,92697	
736,899	45648,90974	
737,088	44485,49104	
737,278	45357,13825	
737,467	44932,63531	
737,656	44504,46144	
737,845	45021,292	
738,034	45063,51786	
738,223	44289,52604	
738,412	45355,02493	
738,601	45036,07044	
738,79	44744,84605	
738,979	44234,76039	
739,168	44784,92697	
739,356	43710,71774	
739,545	45462,82201	
739,734	43904,24685	
739,923	44243,1853	
740,112	43473,16121	
740,301	43853,75054	
740,489	44262,14211	
740,678	43773,81315	
740,867	43645,53121	
741,056	44102,09557	
741,245	42836,96601	
741,433	44238,97282	
741,622	43355,49399	
741,811	43208,46543	
741,999	43061,49819	
742,188	43378,60408	
742,377	43059,3991	
742,565	43319,7814	
742,754	42256,35439	
742,942	43248,36711	
743,131	42604,18946	
743,319	42474,23589	
743,508	42130,71316	
743,697	42857,94432	
743,885	41802,15688	
744,073	42143,27533	
744,262	41530,32668	
744,45	42283,5824	
744,639	41528,23645	
744,827	41892,11425	
745,016	41632,76218	
745,204	41379,86075	
745,392	41626,4898	
745,581	41860,73126	
745,769	40847,45005	
745,957	41206,48275	
746,146	40837,01821	
746,334	41189,77589	
746,522	40618,01632	
746,71	40830,75924	
746,899	40088,76443	
747,087	40115,83424	
747,275	40126,24621	
747,463	40378,30292	
747,651	40067,94281	
747,84	40317,8774	
748,028	40347,04714	
748,216	40324,12787	
748,404	39866,03188	
748,592	39657,98747	
748,78	39949,28121	
748,968	39672,54692	
749,156	39098,90318	
749,344	39227,69141	
749,532	39269,24508	
749,72	39094,74943	
749,908	38385,1032	
750,096	38920,3317	
750,284	38760,51691	
750,472	39196,52906	
750,66	38113,61614	
750,847	38932,78754	
751,035	37885,79208	
751,223	37995,54572	
751,411	38047,32671	
751,599	38119,83133	
751,787	37358,14818	
751,974	37918,9221	
752,162	37382,96314	
752,35	37515,33508	
752,537	37267,17285	
752,725	36973,70796	
752,913	36975,77389	
753,101	36973,70796	
753,288	36742,38946	
753,476	36597,88056	
753,663	36542,15474	
753,851	36484,3728	
754,039	36451,35811	
754,226	36810,53243	
754,414	36317,2625	
754,601	36581,36843	
754,789	36317,2625	
754,976	36024,46249	
755,164	35787,48246	
755,351	35867,83498	
755,539	35208,97019	
755,726	35888,44061	
755,913	34758,62496	
756,101	35231,60226	
756,288	34536,7022	
756,476	35392,11745	
756,663	35064,97494	
756,85	35141,08091	
757,037	34604,50048	
757,225	34343,63467	
757,412	34208,12473	
757,599	34604,50048	
757,787	34514,10501	
757,974	34054,18389	
758,161	33992,62166	
758,348	34277,92795	
758,535	33270,88196	
758,722	33959,79176	
758,91	33479,91192	
759,097	33695,18338	
759,284	33356,94236	
759,471	33375,38583	
759,658	33141,81939	
759,845	33078,32467	
760,032	32730,26962	
760,219	32865,36859	
760,406	32480,63422	
760,593	32789,6269	
760,78	32566,56076	
760,967	32302,68813	
761,154	32546,10078	
761,341	32370,17788	
761,528	32081,87206	
761,715	32274,0587	
761,901	31389,32928	
762,088	31613,95479	
762,275	31665,01839	
762,462	32149,33403	
762,649	31403,62102	
762,835	31415,87136	
763,022	30866,89758	
763,209	30944,41729	
763,396	30750,63635	
763,582	30940,33706	
763,769	30758,79432	
763,956	30926,05647	
764,142	30389,75181	
764,329	30658,86653	
764,516	30020,91886	
764,702	30361,21595	
764,889	29935,3622	
765,075	30304,14796	
765,262	29754,09848	
765,448	30020,91886	
765,635	29760,20773	
765,821	29656,35761	
766,008	29125,11943	
766,194	29587,13256	
766,381	29471,09359	
766,567	29377,46141	
766,754	29098,669	
766,94	29072,21947	
767,127	29279,77075	
767,313	28862,68886	
767,499	28665,4131	
767,686	28580,00908	
767,872	28667,44663	
768,058	28250,67173	
768,244	27844,24423	
768,431	28236,44382	
768,617	28140,91923	
768,803	27462,35241	
768,989	28033,21164	
769,176	27765,01049	
769,362	27706,09708	
769,548	28071,82239	
769,734	26920,2084	
769,92	27190,23426	
770,106	27450,16662	
770,292	27236,93655	
770,478	26774,05288	
770,664	26979,08123	
770,851	26865,39818	
771,037	26711,12973	
771,223	26337,70739	
771,409	26841,03882	
771,594	26175,37817	
771,78	26418,8782	
771,966	26329,59054	
772,152	26386,40937	
772,338	25554,60403	
772,524	25793,96419	
772,71	25716,87915	
772,896	26142,91423	
773,082	25599,22849	
773,267	25718,90766	
773,453	25153,02062	
773,639	25447,1032	
773,825	24982,66935	
774,011	25278,76231	
774,196	25132,74021	
774,382	24828,54946	
774,568	24769,74221	
774,753	24925,88757	
774,939	24412,85923	
775,125	24680,51901	
775,31	24098,5754	
775,496	24447,32985	
775,681	24277,00611	
775,867	24228,34287	
776,053	24090,46498	
776,238	23684,94728	
776,424	23648,4507	
776,609	23498,40855	
776,795	23486,2429	
776,98	23567,34699	
777,166	23506,51897	
777,351	23516,65699	
777,536	23052,32403	
777,722	23103,0169	
777,907	22928,63137	
778,093	23064,49036	
778,278	23017,85261	
778,463	22784,65704	
778,649	22308,0813	
778,834	22561,5877	
779,019	22401,37418	
779,204	22614,31445	
779,39	22208,7006	
779,575	22441,93536	
779,76	22068,7498	
779,945	22792,7684	
780,13	21616,3853	
780,316	21989,64356	
780,501	21490,59756	
780,686	21356,68481	
780,871	21587,98236	
781,056	21665,07506	
781,241	21689,41948	
781,426	21452,04796	
781,611	20946,76309	
781,796	21391,17847	
781,981	20922,40787	
782,166	20743,7904	
782,351	20824,98293	
782,536	20948,79267	
782,721	20810,77458	
782,906	20449,42676	
783,091	20022,98525	
783,276	20506,27452	
783,461	20272,77634	
783,646	20268,71512	
783,83	19876,74106	
784,015	19992,51927	
784,2	19437,89047	
784,385	19860,49053	
784,57	19630,92588	
784,754	19960,02132	
784,939	19191,97098	
785,124	19484,62867	
785,308	19374,89209	
785,493	19165,54622	
785,678	19110,66171	
785,862	19100,49756	
786,047	18872,79204	
786,232	19163,51351	
786,416	18706,04342	
786,601	18905,3248	
786,785	18311,41552	
786,97	18592,14851	
787,154	18227,99156	
787,339	18313,45015	
787,523	18160,83941	
787,708	18030,58939	
787,892	18020,41273	
788,077	18069,25952	
788,261	17737,4503	
788,446	18024,48341	
788,63	17393,27963	
788,814	17550,11013	
788,999	17480,86426	
789,183	17454,38625	
789,367	17152,87896	
789,552	17484,93772	
789,736	17307,72211	
789,92	17301,61048	
790,104	17389,20568	
790,289	17075,44529	
790,473	16757,47374	
790,657	16777,86073	
790,841	16763,5899	
791,025	16867,5566	
791,21	16404,68623	
791,394	16441,40069	
791,578	16606,59196	
791,762	16661,64713	
791,946	16533,17841	
792,13	16388,36808	
792,314	16549,49319	
792,498	16374,08938	
792,682	16125,1847	
792,866	16353,69072	
793,05	16110,90055	
793,234	16431,20242	
793,418	16082,33135	
793,602	15998,65753	
793,786	15961,91943	
793,97	15947,63185	
794,153	15633,22832	
794,337	15688,36169	
794,521	15657,7326	
794,705	16214,96396	
794,889	15298,24535	
795,073	15778,19892	
795,256	15326,84812	
795,44	15467,80069	
795,624	15529,075	
795,807	15712,86395	
795,991	15437,1614	
796,175	15351,36379	
796,358	14987,62017	
796,542	15230,81959	
796,726	15285,98664	
796,909	15144,9949	
797,093	14775,00116	
797,277	15067,33423	
797,46	15003,97257	
797,644	15036,67614	
797,827	14748,41884	
798,011	14805,67171	
798,194	14803,62705	
798,378	14756,59813	
798,561	14609,35485	
798,744	14693,20587	
798,928	14460,03181	
799,111	14631,85254	
799,295	14214,49297	
799,478	14754,55332	
799,661	14191,98048	
799,845	14562,31164	
800,028	14378,1961	
800,211	14558,22076	
800,395	14476,39769	
800,578	14206,3067	
800,761	14237,00466	
800,944	14333,18196	
801,127	13968,85872	
801,311	14259,51555	
801,494	13727,22486	
801,677	13917,67286	
801,86	13876,72117	
802,043	13854,1966	
802,226	14020,04041	
802,409	14155,14012	
802,593	13966,81136	
802,776	13807,09718	
802,959	13571,54702	
803,142	13440,41989	
803,325	13512,13344	
803,508	13794,80979	
803,691	13620,71261	
803,874	13602,27597	
804,056	13475,25321	
804,239	13555,15763	
804,422	13323,61169	
804,605	13434,27264	
804,788	13255,97592	
804,971	13495,74249	
805,154	13212,93118	
805,336	13415,8305	
805,519	13319,51276	
805,702	13116,58222	
805,885	12792,57708	
806,068	13003,81463	
806,25	13266,22424	
806,433	12958,7019	
806,616	12927,94137	
806,798	12770,01353	
806,981	12858,2119	
807,164	12808,98643	
807,346	12999,7136	
807,529	12751,55184	
807,711	12712,57537	
807,894	12614,09774	
808,076	12466,35239	
808,259	12515,60469	
808,442	12441,7248	
808,624	12737,19237	
808,806	12298,04467	
808,989	12154,33189	
809,171	12367,83624	
809,354	12363,73107	
809,536	12421,20106	
809,719	12172,81107	
809,901	12031,12357	
810,083	12314,46691	
810,266	12160,49167	
810,448	12168,70463	
810,63	12020,85513	
810,813	12248,77539	
810,995	11774,36299	
811,177	11985,94121	
811,359	11973,61819	
811,542	12055,76715	
811,724	11881,18794	
811,906	11899,67506	
812,088	11585,32139	
812,27	11702,45155	
812,452	11554,49412	
812,634	11521,61008	
812,817	11525,72068	
812,999	11653,13619	
813,181	11200,90317	
813,363	11332,49439	
813,545	11361,27642	
813,727	11285,20685	
813,909	11032,26323	
814,091	11126,87146	
814,273	11270,81431	
814,455	11289,31895	
814,637	11112,47544	
814,818	11170,05764	
815	11135,09762	
815,182	11038,43375	
815,364	11106,30562	
815,546	11001,40977	
815,728	10766,87647	
815,909	10896,49724	
816,091	10993,18194	
816,273	10663,9849	
816,455	10657,8109	
816,636	10845,06346	
816,818	10768,93414	
817	10962,32666	
817,182	10517,85173	
817,363	10744,24169	
817,545	10497,26705	
817,726	10536,37741	
817,908	10579,60201	
818,09	10423,157	
818,271	10400,51065	
818,453	10355,21569	
818,634	10231,66868	
818,816	10318,15393	
818,997	9897,98111	
819,179	10246,08365	
819,36	10095,74129	
819,542	9972,14775	
819,723	10130,75545	
819,905	10200,77845	
820,086	10048,36636	
820,267	9797,01946	
820,449	9957,72708	
820,63	10122,51698	
820,811	10042,18679	
820,993	9850,59275	
821,174	9947,42641	
821,355	9644,51941	
821,536	9640,39733	
821,718	9456,94087	
821,899	9669,25137	
822,08	9322,92636	
822,261	9574,44086	
822,442	9353,85498	
822,624	9510,53974	
822,805	9504,35546	
822,986	9137,32725	
823,167	9324,98831	
823,348	9364,16423	
823,529	9174,45081	
823,71	9017,69424	
823,891	9275,49994	
824,072	9197,13652	
824,253	9063,07454	
824,434	9112,57717	
824,615	9355,91684	
824,796	8883,60004	
824,977	9149,70197	
825,158	9023,88263	
825,339	8995,00306	
825,52	8749,48207	
825,7	8939,30361	
825,881	8671,06374	
826,062	8848,52532	
826,243	8528,65218	
826,424	8644,23457	
826,604	8726,78285	
826,785	8642,17075	
826,966	8565,80554	
827,147	8452,27583	
827,327	8761,86318	
827,508	8320,1479	
827,689	8598,82926	
827,869	8342,85895	
828,05	8702,0193	
828,231	8336,66509	
828,411	8413,05266	
828,592	7942,22439	
828,772	8285,04771	
828,953	8245,81627	
829,133	8057,89179	
829,314	8072,34907	
829,494	8088,87136	
829,675	8210,71282	
829,855	8037,2381	
830,036	7729,43679	
830,216	8062,02247	
830,396	7851,33148	
830,577	7789,35334	
830,757	7698,44379	
830,938	7526,9288	
831,118	7681,91373	
831,298	7700,51003	
831,479	7710,84113	
831,659	7818,27704	
831,839	7690,1788	
832,019	7814,14515	
832,199	7859,59488	
832,38	7559,99461	
832,56	7514,52879	
832,74	7619,92313	
832,92	7500,06189	
833,1	7332,64168	
833,28	7189,99928	
833,461	7398,78684	
833,641	6997,70616	
833,821	7272,69332	
834,001	7510,39542	
834,181	7249,95323	
834,361	7369,84894	
834,541	7070,07934	
834,721	6952,2115	
834,901	7119,70333	
835,081	6795,03084	
835,261	7099,027	
835,44	7078,3502	
835,62	6749,52621	
835,8	7115,5681	
835,98	6881,89714	
836,16	6737,11548	
836,34	6883,96528	
836,52	6929,46332	
836,699	6670,92212	
836,879	6974,95911	
837,059	6852,94261	
837,239	6745,38932	
837,418	6449,55466	
837,598	6683,33373	
837,778	6555,07263	
837,957	6352,30246	
838,137	6625,4115	
838,317	6499,21161	
838,496	6304,70743	
838,676	6505,41855	
838,855	6453,69284	
839,035	6441,27826	
839,214	6205,37132	
839,394	6555,07263	
839,573	6252,97111	
839,753	6464,0382	
839,932	6312,98499	
840,112	6103,95551	
840,291	6207,44092	
840,471	6379,20297	
840,65	6124,65344	
840,829	6099,81587	
841,009	6159,83895	
841,188	5967,33855	
841,367	5963,19836	
841,547	5913,51474	
841,726	5959,05815	
841,905	5915,58494	
842,085	5867,96933	
842,264	5878,32074	
842,443	5704,4035	
842,622	5905,23391	
842,801	5789,29528	
842,981	5739,60336	
843,16	5650,56616	
843,339	5642,28324	
843,518	5700,26226	
843,697	5774,80205	
843,876	5518,03189	
844,055	5826,56268	
844,234	5586,37192	
844,413	5561,5215	
844,592	5648,49543	
844,771	5387,5526	
844,95	5623,64646	
845,129	5486,96682	
845,308	5507,67697	
845,487	5451,75865	
845,666	5511,81895	
845,845	5364,76891	
846,024	5217,69919	
846,202	5422,76284	
846,381	5399,97988	
846,56	5350,26995	
846,739	5277,77228	
846,918	5261,20072	
847,096	5182,48244	
847,275	5389,62383	
847,454	5008,45406	
847,633	5337,84211	
847,811	5263,27218	
847,99	5261,20072	
848,169	5020,88554	
848,347	5136,90616	
848,526	4969,08681	
848,704	4981,51872	
848,883	5068,53831	
849,062	5093,39982	
849,24	4960,79879	
849,419	4983,59069	
849,597	4807,45976	
849,776	4805,38748	
849,954	4908,99734	
850,133	4859,26576	
850,311	4780,51973	
850,49	4649,95545	
850,668	4753,57909	
850,846	4817,82115	
851,025	4747,36192	
851,203	4736,99992	
851,381	4753,57909	
851,56	4602,28552	
851,738	4660,31822	
851,916	4712,13072	
852,095	4540,10449	
852,273	4382,56477	
852,451	4627,15703	
852,629	4564,97729	
852,807	4453,04561	
852,986	4517,30396	
853,164	4256,1036	
853,342	4382,56477	
853,52	4430,24344	
853,698	4378,41871	
853,876	4218,78469	
854,054	4494,50301	
854,232	4384,6378	
854,41	4395,00287	
854,588	4399,14887	
854,766	4280,98224	
854,944	4407,44083	
855,122	4177,3179	
855,3	4266,46976	
855,478	4048,76201	
855,656	4150,36374	
855,834	4185,61137	
856,012	4065,35062	
856,19	4098,52716	
856,368	4142,07003	
856,545	4061,20349	
856,723	3998,99487	
856,901	4270,6162	
857,079	3955,44699	
857,256	4007,28953	
857,434	4015,58414	
857,612	4042,54123	
857,79	3835,16405	
857,967	3959,59447	
858,145	3988,62647	
858,323	4096,45366	
858,5	3982,40538	
858,678	3874,56835	
858,855	3833,0901	
859,033	3934,70938	
859,211	3855,90331	
859,388	3913,97142	
859,566	3835,16405	
859,743	3843,45979	
859,921	3613,23269	
860,098	3789,53647	
860,276	3694,12805	
860,453	3592,48946	
860,63	3638,12412	
860,808	3675,46035	
860,985	3548,92759	
861,162	3638,12412	
861,34	3586,26643	
861,517	3534,40663	
861,694	3540,62992	
861,872	3557,2252	
862,049	3633,97558	
862,226	3584,19208	
862,403	3515,73659	
862,581	3370,51588	
862,758	3511,58766	
862,935	3424,45692	
863,112	3378,81465	
863,289	3362,21705	
863,467	3405,78527	
863,644	3326,94646	
863,821	3465,94848	
863,998	3235,65339	
864,175	3347,69399	
864,352	3235,65339	
864,529	3457,65028	
864,706	3183,77944	
864,883	3270,92648	
865,06	3140,20372	
865,237	3158,87921	
865,414	3304,1238	
865,591	3250,17772	
865,768	3260,55214	
865,944	3314,49779	
866,121	3063,42387	
866,298	3165,10431	
866,475	3133,97849	
866,652	3084,17563	
866,829	3057,19827	
867,005	2899,47324	
867,182	3015,69355	
867,359	3026,06986	
867,536	3059,27347	
867,712	2936,83091	
867,889	2845,51025	
868,066	2920,22763	
868,242	2938,9063	
868,419	3013,61828	
868,596	2835,13249	
868,772	2677,38031	
868,949	2992,86538	
869,125	2808,14994	
869,302	2907,77503	
869,478	2843,4347	
869,655	2905,69959	
869,831	2822,67908	
870,008	2911,92591	
870,184	2970,03682	
870,361	2635,86337	
870,537	2779,09117	
870,714	2617,18031	
870,89	2536,21722	
871,066	2710,59291	
871,243	2801,92311	
871,419	2552,82545	
871,595	2754,18313	
871,772	2515,45663	
871,948	2507,1523	
872,124	2685,68354	
872,3	2561,12948	
872,477	2681,53194	
872,653	2679,45613	
872,829	2621,33212	
873,005	2395,03854	
873,181	2503,00011	
873,357	2409,57236	
873,533	2581,88933	
873,71	2532,06513	
873,886	2440,7157	
874,062	2536,21722	
874,238	2480,16285	
874,414	2434,4871	
874,59	2297,44998	
874,766	2392,96226	
874,942	2465,62983	
875,118	2370,12302	
875,294	2318,21414	
875,47	2224,77276	
875,645	2297,44998	
875,821	2106,40369	
875,997	2224,77276	
876,173	2189,47088	
876,349	2260,07365	
876,525	2316,13774	
876,7	2183,24103	
876,876	2106,40369	
877,052	2257,99715	
877,228	2247,61463	
877,403	2181,16441	
877,579	2023,33097	
877,755	2083,55925	
877,931	2156,24467	
878,106	2162,47465	
878,282	1992,17725	
878,457	2091,86637	
878,633	2147,93798	
878,809	2174,93452	
878,984	2033,71536	
879,16	1961,02275	
879,335	2060,71438	
879,511	1967,25372	
879,686	1981,79251	
879,862	2077,32887	
880,037	1969,3307	
880,213	1981,79251	
880,388	1927,79041	
880,563	1954,79176	
880,739	1965,17673	
880,914	1936,09858	
881,089	1996,33113	
881,265	1753,30575	
881,44	1855,09152	
881,615	1929,86746	
881,791	1811,4701	
881,966	1859,24586	
882,141	1786,54287	
882,316	1846,7828	
882,492	1734,60947	
882,667	1811,4701	
882,842	1778,23367	
883,017	1832,2424	
883,192	1751,2284	
883,367	1877,94021	
883,542	1799,00655	
883,718	1769,92442	
883,893	1809,39285	
884,068	1703,44835	
884,243	1595,41682	
884,418	1539,31963	
884,593	1636,96858	
884,768	1678,51887	
884,943	1570,48507	
885,117	1699,29348	
885,292	1772,00174	
885,467	1728,37731	
885,642	1595,41682	
885,817	1715,9129	
885,992	1722,14512	
886,167	1846,7828	
886,342	1744,99633	
886,516	1595,41682	
886,691	1722,14512	
886,866	1514,38667	
887,041	1676,44139	
887,215	1628,65835	
887,39	1661,89893	
887,565	1618,27047	
887,739	1543,47507	
887,914	1649,43382	
888,089	1479,06408	
888,263	1425,03919	
888,438	1512,3089	
888,612	1711,75806	
888,787	1497,76441	
888,962	1400,10378	
889,136	1497,76441	
889,311	1429,19504	
889,485	1491,531	
889,659	1427,11712	
889,834	1456,2077	
890,008	1456,2077	
890,183	1350,23131	
890,357	1190,20892	
890,532	1362,69963	
890,706	1447,89618	
890,88	1427,11712	
891,055	1198,52234	
891,229	1514,38667	
891,403	1437,5067	
891,577	1310,74738	
891,752	1375,16781	
891,926	1194,36564	
892,1	1298,27849	
892,274	1400,10378	
892,449	1412,57155	
892,623	1244,24502	
892,797	1350,23131	
892,971	1223,46221	
893,145	1348,15324	
893,319	1188,13056	
893,493	1308,66924	
893,667	1364,77767	
893,841	1393,86984	
894,015	1240,08849	
894,189	1254,63627	
894,363	1381,40186	
894,537	1210,99235	
894,711	1217,2273	
894,885	1231,77538	
895,059	1204,75736	
895,233	1186,05219	
895,407	1117,46386	
895,581	1210,99235	
895,755	1169,42511	
895,928	1084,20736	
896,102	1179,81707	
896,276	1136,17019	
896,45	1175,6603	
896,623	1121,62085	
896,797	1048,87121	
896,971	1075,89308	
897,145	1142,40557	
897,318	1136,17019	
897,492	1254,63627	
897,666	1028,0847	
897,839	1061,34293	
898,013	1007,29779	
898,186	1100,83573	
898,36	1026,00603	
898,534	1109,14983	
898,707	1013,53391	
898,881	1169,42511	
899,054	1007,29779	
899,228	978,19544	
899,401	994,82545	
899,574	1021,84867	
899,748	1021,84867	
899,921	1036,39936	
900,095	955,32874	
900,268	980,2742	
900,441	1121,62085	
900,615	1042,6353	
900,788	1013,53391	
900,961	1067,57873	
901,135	901,27823	
901,308	1042,6353	
901,481	1023,92735	
901,654	1088,36448	
901,828	1015,61261	
902,001	1048,87121	
902,174	907,51497	
902,347	886,72569	
902,52	984,43172	
902,693	915,83056	
902,866	994,82545	
903,04	919,98834	
903,213	971,95912	
903,386	924,14609	
903,559	994,82545	
903,732	872,17296	
903,905	1071,73591	
904,078	789,01053	
904,251	1003,14036	
904,424	859,69902	
904,596	797,32708	
904,769	901,27823	
904,942	947,01346	
905,115	984,43172	
905,288	969,88033	
905,461	851,38298	
905,634	845,1459	
905,806	789,01053	
905,979	824,35538	
906,152	901,27823	
906,325	969,88033	
906,497	938,69811	
906,67	980,2742	
906,843	865,936	
907,015	824,35538	
907,188	784,85224	
907,361	697,52407	
907,533	913,75167	
907,706	707,92068	
907,878	836,82974	
908,051	745,34757	
908,224	992,74671	
908,396	780,69392	
908,569	791,08967	
908,741	834,75069	
908,914	967,80155	
909,086	899,19931	
909,258	859,69902	
909,431	741,18909	
909,603	770,29806	
909,776	861,77802	
909,948	641,38054	
910,12	820,19723	
910,293	699,6034	
910,465	759,9021	
910,637	768,21888	
910,81	865,936	
910,982	809,80177	
911,154	691,28606	
911,326	816,03905	
911,498	703,76205	
911,671	803,56444	
911,843	653,85715	
912,015	628,90377	
912,187	761,9813	
912,359	660,0954	
912,531	714,15859	
912,703	601,87023	
912,875	622,66533	
913,047	722,47574	
913,219	803,56444	
913,391	576,91554	
913,563	724,55502	
913,735	672,57178	
913,907	822,2763	
914,079	776,53559	
914,251	595,63162	
914,423	666,33361	
914,595	730,79283	
914,767	680,88928	
914,939	853,46199	
915,11	747,4268	
915,282	691,28606	
915,454	676,73054	
915,626	618,50635	
915,797	672,57178	
915,969	855,541	
916,141	608,10881	
916,313	695,44474	
916,484	633,06271	
916,656	576,91554	
916,828	572,75636	
916,999	749,50603	
917,171	543,64163	
917,342	583,15427	
917,514	737,0306	
917,685	626,8243	
917,857	612,26784	
918,028	620,58584	
918,2	641,38054	
918,371	576,91554	
918,543	645,53943	
918,714	443,81302	
918,886	564,43796	
919,057	682,96864	
919,229	516,60573	
919,4	560,27873	
919,571	641,38054	
919,743	585,23384	
919,914	529,08393	
920,085	504,12737	
920,256	574,83595	
920,428	537,40264	
920,599	662,17481	
920,77	722,47574	
920,941	581,0747	
921,113	641,38054	
921,284	585,23384	
921,455	506,20711	
921,626	551,96021	
921,797	597,71116	
921,968	745,34757	
922,139	491,64885	
922,31	556,11948	
922,481	529,08393	
922,652	643,45999	
922,823	535,32297	
922,994	487,48931	
923,165	560,27873	
923,336	497,88813	
923,507	637,22164	
923,678	741,18909	
923,849	468,77115	
924,02	470,85096	
924,191	514,52602	
924,362	423,01408	
924,532	400,13473	
924,703	587,31341	
924,874	452,13247	
925,045	510,36657	
925,215	439,65327	
925,386	412,61445	
925,557	518,68544	
925,728	412,61445	
925,898	479,17017	
926,069	414,69438	
926,24	597,71116	
926,41	487,48931	
926,581	443,81302	
926,751	564,43796	
926,922	472,93077	
927,092	327,33306	
927,263	447,97275	
927,433	495,80838	
927,604	343,97394	
927,774	373,09477	
927,945	466,69133	
928,115	518,68544	
928,286	352,29427	
928,456	487,48931	
928,627	443,81302	
928,797	429,25381	
928,967	487,48931	
929,138	541,56197	
929,308	414,69438	
929,478	487,48931	
929,648	323,17279	
929,819	626,8243	
929,989	404,29465	
930,159	481,24996	
930,329	385,57485	
930,5	381,41484	
930,67	371,01474	
930,84	414,69438	
931,01	389,73483	
931,18	429,25381	
931,35	439,65327	
931,52	406,37461	
931,69	452,13247	
931,86	489,56909	
932,03	418,85424	
932,2	343,97394	
932,37	264,92707	
932,54	408,45456	
932,71	281,56908	
932,88	429,25381	
933,05	412,61445	
933,22	239,96348	
933,39	341,89384	
933,56	468,77115	
933,73	364,77462	
933,899	231,64214	
934,069	323,17279	
934,239	404,29465	
934,409	346,05403	
934,578	460,45184	
934,748	398,05476	
934,918	323,17279	
935,088	339,81375	
935,257	339,81375	
935,427	283,64931	
935,596	298,21079	
935,766	260,76652	
935,936	447,97275	
936,105	289,88997	
936,275	379,33483	
936,444	277,40861	
936,614	354,37434	
936,783	277,40861	
936,953	239,96348	
937,122	269,0876	
937,292	233,72248	
937,461	298,21079	
937,631	300,29098	
937,8	427,17391	
937,969	287,80976	
938,139	304,45135	
938,308	343,97394	
938,477	312,77204	
938,647	138,02166	
938,816	335,65353	
938,985	289,88997	
939,155	291,97018	
939,324	273,24811	
939,493	169,22958	
939,662	333,57342	
939,831	248,28476	
940,001	300,29098	
940,17	185,87335	
940,339	229,56179	
940,508	167,14908	
940,677	277,40861	
940,846	275,32836	
941,015	246,20444	
941,184	198,35598	
941,353	154,66602	
941,522	154,66602	
941,691	237,88315	
941,86	102,65136	
942,029	223,32071	
942,198	181,71244	
942,367	190,03424	
942,536	190,03424	
942,705	171,31006	
942,873	185,87335	
943,042	202,51681	
943,211	77,68323	
943,38	223,32071	
943,549	181,71244	
943,717	171,31006	
943,886	54,79515	
944,055	46,47206	
944,224	90,16738	
944,392	264,92707	
944,561	36,06808	
944,73	44,39127	
944,898	119,29638	
945,067	61,03741	
945,235	123,45759	
945,404	162,98808	
945,572	233,72248	
945,741	187,9538	
945,91	38,14889	
946,078	102,65136	
946,247	98,49005	
946,415	121,37699	
946,583	135,94109	
946,752	135,94109	
946,92	133,86052	
947,089	102,65136	
947,257	61,03741	
947,425	75,60252	
947,594	88,0867	
947,762	113,05454	
947,93	138,02166	
948,099	154,66602	
948,267	142,18278	
948,435	169,22958	
948,603	77,68323	
948,772	106,81264	
948,94	127,61878	
949,108	192,11469	
949,276	104,732	
949,444	113,05454	
949,612	131,77995	
949,78	162,98808	
949,948	204,59723	
950,116	131,77995	
950,285	173,39055	
950,453	135,94109	
950,621	44,39127	
950,789	165,06858	
950,957	148,42442	
951,124	90,16738	
951,292	117,21577	
951,46	33,98727	
951,628	144,26333	
951,796	140,10222	
951,964	102,65136	
952,132	25,66398	
952,3	192,11469	
952,467	117,21577	
952,635	190,03424	
952,803	13,1789	
952,971	13,1789	
953,138	142,18278	
953,306	-7,62998	
953,474	140,10222	
953,641	56,87591	
953,809	56,87591	
953,977	54,79515	
954,144	100,57071	
954,312	86,00602	
954,48	148,42442	
954,647	185,87335	
954,815	285,72954	
954,982	150,50496	
955,15	50,63361	
955,317	102,65136	
955,485	100,57071	
955,652	229,56179	
955,82	71,44108	
955,987	108,89328	
956,154	129,69936	
956,322	92,24806	
956,489	102,65136	
956,656	77,68323	
956,824	25,66398	
956,991	102,65136	
957,158	104,732	
957,326	125,53819	
957,493	358,53447	
957,66	104,732	
957,827	142,18278	
957,994	110,97391	
958,162	54,79515	
958,329	229,56179	
958,496	40,22969	
958,663	0,69363	
958,83	196,27555	
958,997	90,16738	
959,164	148,42442	
959,331	102,65136	
959,498	142,18278	
959,665	73,5218	
959,832	173,39055	
959,999	61,03741	
960,166	237,88315	
960,333	142,18278	
960,5	281,56908	
960,667	98,49005	
960,834	17,34061	
961,001	123,45759	
961,168	21,50231	
961,334	-1,38726	
961,501	90,16738	
961,668	129,69936	
961,835	31,90646	
962,002	44,39127	
962,168	2,77452	
962,335	52,71438	
962,502	98,49005	
962,668	40,22969	
962,835	17,34061	
963,002	117,21577	
963,168	83,92533	
963,335	165,06858	
963,502	169,22958	
963,668	162,98808	
963,835	154,66602	
964,001	108,89328	
964,168	-38,84425	
964,334	46,47206	
964,501	-1,38726	
964,667	31,90646	
964,834	104,732	
965	92,24806	
965,166	140,10222	
965,333	90,16738	
965,499	31,90646	
965,665	185,87335	
965,832	108,89328	
965,998	94,32873	
966,164	44,39127	
966,331	127,61878	
966,497	129,69936	
966,663	-82,54618	
966,829	133,86052	
966,996	158,82706	
967,162	54,79515	
967,328	44,39127	
967,494	29,82564	
967,66	129,69936	
967,826	83,92533	
967,992	15,25976	
968,158	67,27963	
968,324	27,74481	
968,491	90,16738	
968,657	208,75803	
968,823	156,74654	
968,988	21,50231	
969,154	75,60252	
969,32	119,29638	
969,486	0,69363	
969,652	27,74481	
969,818	115,13516	
969,984	21,50231	
970,15	83,92533	
970,316	79,76393	
970,481	71,44108	
970,647	119,29638	
970,813	86,00602	
970,979	38,14889	
971,144	-63,8165	
971,31	40,22969	
971,476	-20,11555	
971,642	71,44108	
971,807	127,61878	
971,973	4,85541	
972,138	-1,38726	
972,304	65,19889	
972,47	-30,52034	
972,635	154,66602	
972,801	98,49005	
972,966	2,77452	
973,132	44,39127	
973,297	88,0867	
973,463	-22,1965	
973,628	61,03741	
973,794	63,11815	
973,959	79,76393	
974,125	65,19889	
974,29	4,85541	
974,455	-7,62998	
974,621	-59,65441	
974,786	40,22969	
974,951	77,68323	
975,117	65,19889	
975,282	-49,24927	
975,447	52,71438	
975,612	56,87591	
975,778	13,1789	
975,943	61,03741	
976,108	167,14908	
976,273	88,0867	
976,438	73,5218	
976,603	98,49005	
976,768	33,98727	
976,934	-45,08725	
977,099	31,90646	
977,264	123,45759	
977,429	140,10222	
977,594	-15,95368	
977,759	69,36036	
977,924	-43,00624	
978,089	44,39127	
978,254	140,10222	
978,418	129,69936	
978,583	-70,05968	
978,748	56,87591	
978,913	-40,92525	
979,078	90,16738	
979,243	106,81264	
979,408	127,61878	
979,572	-67,97862	
979,737	192,11469	
979,902	106,81264	
980,067	102,65136	
980,231	50,63361	
980,396	36,06808	
980,561	-36,76327	
980,725	31,90646	
980,89	9,01716	
981,055	-3,46816	
981,219	100,57071	
981,384	52,71438	
981,548	6,93629	
981,713	-3,46816	
981,877	69,36036	
982,042	-3,46816	
982,206	150,50496	
982,371	48,55284	
982,535	110,97391	
982,7	462,53168	
982,864	23,58315	
983,029	29,82564	
983,193	40,22969	
983,357	42,31048	
983,522	102,65136	
983,686	127,61878	
983,85	15,25976	
984,015	-13,87274	
984,179	83,92533	
984,343	-49,24927	
984,507	113,05454	
984,672	115,13516	
984,836	92,24806	
985	-11,79182	
985,164	-103,35742	
985,328	102,65136	
985,492	-34,68229	
985,656	121,37699	
985,821	44,39127	
985,985	-22,1965	
986,149	-7,62998	
986,313	27,74481	
986,477	-43,00624	
986,641	42,31048	
986,805	79,76393	
986,969	-15,95368	
987,133	83,92533	
987,296	-13,87274	
987,46	75,60252	
987,624	23,58315	
987,788	96,40939	
987,952	42,31048	
988,116	25,66398	
988,28	67,27963	
988,443	115,13516	
988,607	-9,7109	
988,771	-53,41131	
988,935	63,11815	
989,098	-36,76327	
989,262	48,55284	
989,426	-84,62728	
989,589	-5,54907	
989,753	-63,8165	
989,917	6,93629	
990,08	36,06808	
990,244	98,49005	
990,407	17,34061	
990,571	58,95666	
990,734	90,16738	
990,898	67,27963	
991,061	-51,33029	
991,225	50,63361	
991,388	0,69363	
991,552	181,71244	
991,715	33,98727	
991,878	-80,46508	
992,042	67,27963	
992,205	58,95666	
992,369	11,09803	
992,532	4,85541	
992,695	-86,70838	
992,858	54,79515	
993,022	79,76393	
993,185	58,95666	
993,348	2,77452	
993,511	23,58315	
993,675	-76,3029	
993,838	2,77452	
994,001	42,31048	
994,164	21,50231	
994,327	140,10222	
994,49	48,55284	
994,653	-40,92525	
994,816	-49,24927	
994,979	115,13516	
995,142	-59,65441	
995,305	-67,97862	
995,468	-61,73545	
995,631	-15,95368	
995,794	65,19889	
995,957	23,58315	
996,12	11,09803	
996,283	185,87335	
996,446	158,82706	
996,609	-1,38726	
996,772	69,36036	
996,934	25,66398	
997,097	54,79515	
997,26	50,63361	
997,423	90,16738	
997,585	33,98727	
997,748	-45,08725	
997,911	-55,49234	
998,074	58,95666	
998,236	-72,14075	
998,399	-7,62998	
998,561	-1,38726	
998,724	58,95666	
998,887	-15,95368	
999,049	38,14889	
999,212	17,34061	
999,374	23,58315	
999,537	63,11815	
999,699	79,76393	
999,862	19,42146	
1000,024	-40,92525	
1000,187	61,03741	
1000,349	-18,03461	
1000,512	98,49005	
1000,674	38,14889	
1000,836	-61,73545	
1000,999	25,66398	
1001,161	27,74481	
1001,323	-5,54907	
1001,486	-38,84425	
1001,648	-1,38726	
1001,81	-40,92525	
1001,972	-3,46816	
1002,134	50,63361	
1002,297	21,50231	
1002,459	90,16738	
1002,621	-61,73545	
1002,783	48,55284	
1002,945	-40,92525	
1003,107	15,25976	
1003,269	19,42146	
1003,432	-5,54907	
1003,594	-47,16826	
1003,756	17,34061	
1003,918	-80,46508	
1004,08	100,57071	
1004,242	0,69363	
1004,404	46,47206	
1004,565	-40,92525	
1004,727	33,98727	
1004,889	-7,62998	
1005,051	-61,73545	
1005,213	119,29638	
1005,375	79,76393	
1005,537	125,53819	
1005,698	67,27963	
1005,86	11,09803	
1006,022	88,0867	
1006,184	94,32873	
1006,345	113,05454	
1006,507	-57,57337	
1006,669	63,11815	
1006,831	-122,08798	
1006,992	88,0867	
1007,154	-63,8165	
1007,315	-86,70838	
1007,477	40,22969	
1007,639	38,14889	
1007,8	-26,35841	
1007,962	50,63361	
1008,123	-43,00624	
1008,285	115,13516	
1008,446	102,65136	
1008,608	-105,43857	
1008,769	146,34388	
1008,931	-22,1965	
1009,092	-5,54907	
1009,253	104,732	
1009,415	183,7929	
1009,576	11,09803	
1009,737	29,82564	
1009,899	83,92533	
1010,06	44,39127	
1010,221	75,60252	
1010,382	-7,62998	
1010,544	-63,8165	
1010,705	9,01716	
1010,866	142,18278	
1011,027	29,82564	
1011,188	-40,92525	
1011,35	-11,79182	
1011,511	0,69363	
1011,672	-36,76327	
1011,833	-1,38726	
1011,994	221,24034	
1012,155	-55,49234	
1012,316	-86,70838	
1012,477	-9,7109	
1012,638	6,93629	
1012,799	198,35598	
1012,96	63,11815	
1013,121	-9,7109	
1013,282	-92,95173	
1013,443	165,06858	
1013,604	131,77995	
1013,765	-30,52034	
1013,925	56,87591	
1014,086	-51,33029	
1014,247	-9,7109	
1014,408	165,06858	
1014,569	-57,57337	
1014,729	-34,68229	
1014,89	27,74481	
1015,051	52,71438	
1015,211	-22,1965	
1015,372	-86,70838	
1015,533	36,06808	
1015,693	58,95666	
1015,854	79,76393	
1016,015	13,1789	
1016,175	69,36036	
1016,336	-3,46816	
1016,496	-20,11555	
1016,657	40,22969	
1016,817	106,81264	
1016,978	-78,38399	
1017,138	40,22969	
1017,299	102,65136	
1017,459	-34,68229	
1017,62	15,25976	
1017,78	-13,87274	
1017,94	-117,92559	
1018,101	58,95666	
1018,261	-9,7109	
1018,421	-13,87274	
1018,582	-3,46816	
1018,742	-88,78949	
1018,902	-57,57337	
1019,062	-1,38726	
1019,223	-86,70838	
1019,383	23,58315	
1019,543	-32,60131	
1019,703	21,50231	
1019,863	6,93629	
1020,023	23,58315	
1020,184	11,09803	
1020,344	-45,08725	
1020,504	-92,95173	
1020,664	-43,00624	
1020,824	-88,78949	
1020,984	-111,68206	
1021,144	56,87591	
1021,304	-117,92559	
1021,464	31,90646	
1021,624	9,01716	
1021,784	36,06808	
1021,943	-30,52034	
1022,103	19,42146	
1022,263	94,32873	
1022,423	29,82564	
1022,583	38,14889	
1022,743	-124,16918	
1022,902	-24,27745	
1023,062	9,01716	
1023,222	-101,27627	
1023,382	-34,68229	
1023,541	117,21577	
1023,701	100,57071	
1023,861	-70,05968	
1024,02	-43,00624	
1024,18	94,32873	
1024,34	-115,84441	
1024,499	38,14889	
1024,659	31,90646	
1024,818	-55,49234	
1024,978	4,85541	
1025,137	25,66398	
1025,297	169,22958	
1025,456	2,77452	
1025,616	21,50231	
1025,775	-59,65441	
1025,935	117,21577	
1026,094	25,66398	
1026,254	-36,76327	
1026,413	36,06808	
1026,572	102,65136	
1026,732	-74,22182	
1026,891	25,66398	
1027,05	40,22969	
1027,21	17,34061	
1027,369	29,82564	
1027,528	0,69363	
1027,687	21,50231	
1027,846	2,77452	
1028,006	-86,70838	
1028,165	52,71438	
1028,324	38,14889	
1028,483	123,45759	
1028,642	-115,84441	
1028,801	73,5218	
1028,96	42,31048	
1029,119	-5,54907	
1029,278	-30,52034	
1029,437	-20,11555	
1029,596	-30,52034	
1029,755	-95,03286	
1029,914	96,40939	
1030,073	-36,76327	
1030,232	-47,16826	
1030,391	-86,70838	
1030,55	11,09803	
1030,709	-9,7109	
1030,868	-22,1965	
1031,026	50,63361	
1031,185	-55,49234	
1031,344	67,27963	
1031,503	19,42146	
1031,662	-65,89756	
1031,82	33,98727	
1031,979	-36,76327	
1032,138	212,91882	
1032,296	-28,43937	
1032,455	-40,92525	
1032,614	146,34388	
1032,772	94,32873	
1032,931	-13,87274	
1033,089	-1,38726	
1033,248	100,57071	
1033,407	-51,33029	
1033,565	25,66398	
1033,724	0,69363	
1033,882	-1,38726	
1034,04	42,31048	
1034,199	102,65136	
1034,357	-99,19513	
1034,516	-3,46816	
1034,674	52,71438	
1034,832	-3,46816	
1034,991	38,14889	
1035,149	-78,38399	
1035,307	-26,35841	
1035,466	33,98727	
1035,624	86,00602	
1035,782	-5,54907	
1035,941	160,90757	
1036,099	15,25976	
1036,257	17,34061	
1036,415	162,98808	
1036,573	-20,11555	
1036,731	-45,08725	
1036,889	61,03741	
1037,048	83,92533	
1037,206	56,87591	
1037,364	-18,03461	
1037,522	6,93629	
1037,68	-36,76327	
1037,838	9,01716	
1037,996	9,01716	
1038,154	9,01716	
