Data from toptop2mgmL40mL_FLMT001621__0__16-07-36-954.txt Node

Date: Tue Jun 09 16:07:36 EDT 2026
User: lucas
Spectrometer: FLMT00162
Trigger mode: 0
Integration Time (sec): 1,000000E-1
Scans to average: 1
Electric dark correction enabled: true
Nonlinearity correction enabled: true
Boxcar width: 0
XAxis mode: Wavelengths
Number of Pixels in Spectrum: 3648
>>>>>Begin Spectral Data<<<<<
345,274	-357,29736
345,493	-357,29736
345,712	-357,29736
345,932	-282,35588
346,151	-28,43937
346,37	38,14889
346,59	0,69363
346,809	-47,16826
347,028	15,25976
347,247	4,85541
347,467	21,50231
347,686	-26,35841
347,905	-13,87274
348,124	83,92533
348,343	-28,43937
348,563	-20,11555
348,782	88,0867
349,001	69,36036
349,22	56,87591
349,439	75,60252
349,658	-20,11555
349,877	42,31048
350,096	36,06808
350,315	58,95666
350,534	81,84463
350,753	121,37699
350,972	-72,14075
351,191	81,84463
351,41	44,39127
351,629	71,44108
351,848	-7,62998
352,067	73,5218
352,286	4,85541
352,505	-30,52034
352,724	-20,11555
352,943	-51,33029
353,162	92,24806
353,381	-11,79182
353,599	-1,38726
353,818	-36,76327
354,037	17,34061
354,256	-1,38726
354,475	88,0867
354,693	79,76393
354,912	9,01716
355,131	15,25976
355,35	88,0867
355,568	-45,08725
355,787	-40,92525
356,006	44,39127
356,224	-20,11555
356,443	38,14889
356,661	71,44108
356,88	23,58315
357,099	-22,1965
357,317	-57,57337
357,536	25,66398
357,754	-32,60131
357,973	75,60252
358,191	36,06808
358,41	-38,84425
358,628	31,90646
358,847	31,90646
359,065	-38,84425
359,284	-88,78949
359,502	40,22969
359,721	-20,11555
359,939	108,89328
360,157	61,03741
360,376	48,55284
360,594	29,82564
360,813	88,0867
361,031	27,74481
361,249	6,93629
361,467	38,14889
361,686	-65,89756
361,904	21,50231
362,122	40,22969
362,341	63,11815
362,559	108,89328
362,777	19,42146
362,995	42,31048
363,213	-49,24927
363,431	54,79515
363,65	148,42442
363,868	-38,84425
364,086	90,16738
364,304	-13,87274
364,522	54,79515
364,74	-7,62998
364,958	73,5218
365,176	-24,27745
365,394	65,19889
365,612	-11,79182
365,83	56,87591
366,048	-15,95368
366,266	11,09803
366,484	25,66398
366,702	50,63361
366,92	9,01716
367,138	6,93629
367,356	-34,68229
367,574	40,22969
367,792	90,16738
368,01	44,39127
368,227	113,05454
368,445	4,85541
368,663	50,63361
368,881	-74,22182
369,099	6,93629
369,316	-3,46816
369,534	38,14889
369,752	6,93629
369,97	23,58315
370,187	-36,76327
370,405	83,92533
370,623	46,47206
370,84	-45,08725
371,058	-28,43937
371,276	46,47206
371,493	52,71438
371,711	100,57071
371,928	38,14889
372,146	-53,41131
372,364	46,47206
372,581	11,09803
372,799	31,90646
373,016	-49,24927
373,234	25,66398
373,451	-24,27745
373,669	-18,03461
373,886	83,92533
374,103	-18,03461
374,321	90,16738
374,538	44,39127
374,756	17,34061
374,973	44,39127
375,19	-28,43937
375,408	-99,19513
375,625	2,77452
375,842	6,93629
376,06	2,77452
376,277	21,50231
376,494	-34,68229
376,712	11,09803
376,929	-3,46816
377,146	15,25976
377,363	29,82564
377,581	42,31048
377,798	90,16738
378,015	-107,51973
378,232	-28,43937
378,449	96,40939
378,666	-38,84425
378,883	29,82564
379,101	69,36036
379,318	-74,22182
379,535	38,14889
379,752	40,22969
379,969	-36,76327
380,186	11,09803
380,403	27,74481
380,62	-15,95368
380,837	-49,24927
381,054	171,31006
381,271	77,68323
381,488	52,71438
381,705	-38,84425
381,921	-80,46508
382,138	21,50231
382,355	23,58315
382,572	-13,87274
382,789	-18,03461
383,006	31,90646
383,223	9,01716
383,439	83,92533
383,656	-55,49234
383,873	-28,43937
384,09	75,60252
384,306	-47,16826
384,523	-9,7109
384,74	165,06858
384,957	63,11815
385,173	31,90646
385,39	6,93629
385,607	125,53819
385,823	29,82564
386,04	33,98727
386,256	-24,27745
386,473	79,76393
386,69	44,39127
386,906	-78,38399
387,123	15,25976
387,339	-38,84425
387,556	0,69363
387,772	61,03741
387,989	75,60252
388,205	-20,11555
388,422	-101,27627
388,638	23,58315
388,855	69,36036
389,071	135,94109
389,287	50,63361
389,504	121,37699
389,72	79,76393
389,937	-38,84425
390,153	44,39127
390,369	31,90646
390,585	9,01716
390,802	29,82564
391,018	-30,52034
391,234	52,71438
391,451	-7,62998
391,667	-26,35841
391,883	42,31048
392,099	27,74481
392,315	-26,35841
392,532	-9,7109
392,748	9,01716
392,964	-59,65441
393,18	6,93629
393,396	29,82564
393,612	88,0867
393,828	40,22969
394,044	-3,46816
394,26	63,11815
394,477	-3,46816
394,693	58,95666
394,909	138,02166
395,125	100,57071
395,341	75,60252
395,557	13,1789
395,772	48,55284
395,988	158,82706
396,204	31,90646
396,42	90,16738
396,636	0,69363
396,852	33,98727
397,068	-47,16826
397,284	-95,03286
397,5	-7,62998
397,715	77,68323
397,931	11,09803
398,147	90,16738
398,363	67,27963
398,578	27,74481
398,794	-113,76323
399,01	-47,16826
399,226	125,53819
399,441	-34,68229
399,657	-47,16826
399,873	31,90646
400,088	52,71438
400,304	69,36036
400,52	88,0867
400,735	-88,78949
400,951	17,34061
401,166	2,77452
401,382	-30,52034
401,597	96,40939
401,813	65,19889
402,029	-26,35841
402,244	-13,87274
402,46	-22,1965
402,675	-20,11555
402,89	71,44108
403,106	33,98727
403,321	94,32873
403,537	-1,38726
403,752	9,01716
403,968	0,69363
404,183	-18,03461
404,398	-38,84425
404,614	29,82564
404,829	-26,35841
405,044	119,29638
405,26	-15,95368
405,475	86,00602
405,69	-24,27745
405,905	-28,43937
406,121	77,68323
406,336	-43,00624
406,551	23,58315
406,766	15,25976
406,981	-20,11555
407,196	48,55284
407,412	-90,87061
407,627	-53,41131
407,842	0,69363
408,057	154,66602
408,272	-24,27745
408,487	2,77452
408,702	-7,62998
408,917	19,42146
409,132	58,95666
409,347	-51,33029
409,562	119,29638
409,777	-55,49234
409,992	98,49005
410,207	-18,03461
410,422	17,34061
410,637	48,55284
410,852	19,42146
411,067	-3,46816
411,282	50,63361
411,496	-51,33029
411,711	75,60252
411,926	152,58549
412,141	113,05454
412,356	102,65136
412,571	-3,46816
412,785	-1,38726
413	-1,38726
413,215	25,66398
413,429	15,25976
413,644	0,69363
413,859	9,01716
414,074	29,82564
414,288	-30,52034
414,503	-32,60131
414,718	27,74481
414,932	-84,62728
415,147	0,69363
415,361	61,03741
415,576	131,77995
415,79	48,55284
416,005	4,85541
416,22	6,93629
416,434	90,16738
416,649	-40,92525
416,863	0,69363
417,077	42,31048
417,292	96,40939
417,506	150,50496
417,721	-51,33029
417,935	165,06858
418,15	-13,87274
418,364	63,11815
418,578	86,00602
418,793	75,60252
419,007	25,66398
419,221	61,03741
419,436	-28,43937
419,65	23,58315
419,864	19,42146
420,078	52,71438
420,293	-22,1965
420,507	79,76393
420,721	71,44108
420,935	11,09803
421,149	2,77452
421,364	-43,00624
421,578	63,11815
421,792	-28,43937
422,006	115,13516
422,22	77,68323
422,434	113,05454
422,648	-24,27745
422,862	25,66398
423,076	50,63361
423,29	40,22969
423,504	9,01716
423,718	173,39055
423,932	-30,52034
424,146	48,55284
424,36	4,85541
424,574	94,32873
424,788	13,1789
425,002	31,90646
425,216	63,11815
425,43	-28,43937
425,644	19,42146
425,858	-53,41131
426,071	-74,22182
426,285	71,44108
426,499	54,79515
426,713	69,36036
426,927	79,76393
427,14	-38,84425
427,354	121,37699
427,568	33,98727
427,782	48,55284
427,995	38,14889
428,209	77,68323
428,423	29,82564
428,636	6,93629
428,85	-28,43937
429,063	-74,22182
429,277	44,39127
429,491	-90,87061
429,704	117,21577
429,918	138,02166
430,131	2,77452
430,345	31,90646
430,558	-30,52034
430,772	65,19889
430,985	13,1789
431,199	52,71438
431,412	-7,62998
431,626	-13,87274
431,839	-11,79182
432,053	38,14889
432,266	73,5218
432,479	73,5218
432,693	94,32873
432,906	-24,27745
433,119	-24,27745
433,333	25,66398
433,546	29,82564
433,759	40,22969
433,973	-18,03461
434,186	56,87591
434,399	44,39127
434,612	29,82564
434,825	100,57071
435,039	21,50231
435,252	-3,46816
435,465	123,45759
435,678	-115,84441
435,891	19,42146
436,104	-3,46816
436,318	46,47206
436,531	4,85541
436,744	-9,7109
436,957	40,22969
437,17	-99,19513
437,383	63,11815
437,596	54,79515
437,809	-20,11555
438,022	75,60252
438,235	15,25976
438,448	113,05454
438,661	88,0867
438,874	-7,62998
439,086	31,90646
439,299	142,18278
439,512	88,0867
439,725	21,50231
439,938	77,68323
440,151	-53,41131
440,364	-18,03461
440,576	104,732
440,789	17,34061
441,002	-1,38726
441,215	-36,76327
441,427	33,98727
441,64	67,27963
441,853	56,87591
442,066	42,31048
442,278	33,98727
442,491	-43,00624
442,704	123,45759
442,916	0,69363
443,129	160,90757
443,341	31,90646
443,554	4,85541
443,767	9,01716
443,979	40,22969
444,192	81,84463
444,404	9,01716
444,617	17,34061
444,829	44,39127
445,042	133,86052
445,254	79,76393
445,467	-1,38726
445,679	152,58549
445,892	102,65136
446,104	2,77452
446,316	-45,08725
446,529	42,31048
446,741	-55,49234
446,953	52,71438
447,166	94,32873
447,378	4,85541
447,59	36,06808
447,803	56,87591
448,015	-47,16826
448,227	40,22969
448,439	50,63361
448,652	-55,49234
448,864	100,57071
449,076	11,09803
449,288	-11,79182
449,5	40,22969
449,712	52,71438
449,925	-1,38726
450,137	56,87591
450,349	58,95666
450,561	-70,05968
450,773	-84,62728
450,985	-53,41131
451,197	42,31048
451,409	19,42146
451,621	4,85541
451,833	-7,62998
452,045	46,47206
452,257	19,42146
452,469	23,58315
452,681	-111,68206
452,893	31,90646
453,105	96,40939
453,317	169,22958
453,529	-111,68206
453,74	0,69363
453,952	-3,46816
454,164	38,14889
454,376	11,09803
454,588	-24,27745
454,799	36,06808
455,011	-32,60131
455,223	0,69363
455,435	86,00602
455,646	90,16738
455,858	65,19889
456,07	98,49005
456,281	-13,87274
456,493	94,32873
456,705	88,0867
456,916	-36,76327
457,128	29,82564
457,34	-47,16826
457,551	48,55284
457,763	0,69363
457,974	54,79515
458,186	-32,60131
458,397	31,90646
458,609	-20,11555
458,82	61,03741
459,032	50,63361
459,243	156,74654
459,455	113,05454
459,666	-7,62998
459,878	-5,54907
460,089	19,42146
460,3	104,732
460,512	29,82564
460,723	165,06858
460,934	6,93629
461,146	65,19889
461,357	158,82706
461,568	-45,08725
461,78	71,44108
461,991	88,0867
462,202	50,63361
462,413	123,45759
462,625	38,14889
462,836	104,732
463,047	63,11815
463,258	-38,84425
463,469	-7,62998
463,68	-53,41131
463,891	-15,95368
464,103	29,82564
464,314	27,74481
464,525	31,90646
464,736	63,11815
464,947	31,90646
465,158	-28,43937
465,369	-59,65441
465,58	33,98727
465,791	50,63361
466,002	-28,43937
466,213	83,92533
466,424	9,01716
466,635	-9,7109
466,846	56,87591
467,056	-40,92525
467,267	-38,84425
467,478	-26,35841
467,689	58,95666
467,9	-11,79182
468,111	-43,00624
468,322	36,06808
468,532	-24,27745
468,743	-59,65441
468,954	54,79515
469,165	38,14889
469,375	11,09803
469,586	-18,03461
469,797	108,89328
470,007	0,69363
470,218	-20,11555
470,429	6,93629
470,639	192,11469
470,85	102,65136
471,061	2,77452
471,271	-74,22182
471,482	-3,46816
471,692	11,09803
471,903	-26,35841
472,113	2,77452
472,324	19,42146
472,534	4,85541
472,745	-38,84425
472,955	50,63361
473,166	15,25976
473,376	61,03741
473,587	-20,11555
473,797	-76,3029
474,007	115,13516
474,218	-65,89756
474,428	123,45759
474,638	0,69363
474,849	42,31048
475,059	38,14889
475,269	77,68323
475,48	21,50231
475,69	48,55284
475,9	2,77452
476,11	-53,41131
476,321	69,36036
476,531	-11,79182
476,741	63,11815
476,951	11,09803
477,161	25,66398
477,371	52,71438
477,581	58,95666
477,792	-49,24927
478,002	27,74481
478,212	140,10222
478,422	2,77452
478,632	40,22969
478,842	-34,68229
479,052	-22,1965
479,262	46,47206
479,472	102,65136
479,682	58,95666
479,892	-24,27745
480,102	23,58315
480,312	83,92533
480,522	-22,1965
480,731	52,71438
480,941	90,16738
481,151	-53,41131
481,361	44,39127
481,571	-13,87274
481,781	98,49005
481,991	88,0867
482,2	17,34061
482,41	-47,16826
482,62	44,39127
482,83	88,0867
483,039	-15,95368
483,249	90,16738
483,459	77,68323
483,668	27,74481
483,878	-57,57337
484,088	-26,35841
484,297	-90,87061
484,507	-26,35841
484,716	-1,38726
484,926	94,32873
485,136	50,63361
485,345	81,84463
485,555	29,82564
485,764	79,76393
485,974	94,32873
486,183	56,87591
486,393	108,89328
486,602	38,14889
486,812	-24,27745
487,021	56,87591
487,23	4,85541
487,44	-76,3029
487,649	25,66398
487,859	156,74654
488,068	4,85541
488,277	83,92533
488,487	-53,41131
488,696	-9,7109
488,905	9,01716
489,115	46,47206
489,324	11,09803
489,533	-24,27745
489,742	146,34388
489,951	19,42146
490,161	-11,79182
490,37	-18,03461
490,579	-92,95173
490,788	92,24806
490,997	-59,65441
491,206	71,44108
491,415	71,44108
491,625	46,47206
491,834	-88,78949
492,043	-3,46816
492,252	13,1789
492,461	17,34061
492,67	42,31048
492,879	52,71438
493,088	-7,62998
493,297	250,36506
493,506	77,68323
493,715	194,19512
493,924	-34,68229
494,132	-30,52034
494,341	52,71438
494,55	69,36036
494,759	31,90646
494,968	9,01716
495,177	15,25976
495,386	165,06858
495,594	127,61878
495,803	125,53819
496,012	56,87591
496,221	-65,89756
496,429	71,44108
496,638	152,58549
496,847	86,00602
497,055	17,34061
497,264	-9,7109
497,473	38,14889
497,681	44,39127
497,89	119,29638
498,099	69,36036
498,307	-7,62998
498,516	46,47206
498,724	-47,16826
498,933	19,42146
499,141	6,93629
499,35	48,55284
499,558	100,57071
499,767	-9,7109
499,975	52,71438
500,184	0,69363
500,392	-3,46816
500,601	69,36036
500,809	92,24806
501,018	-34,68229
501,226	15,25976
501,434	42,31048
501,643	23,58315
501,851	106,81264
502,059	13,1789
502,268	67,27963
502,476	90,16738
502,684	63,11815
502,892	117,21577
503,101	104,732
503,309	44,39127
503,517	108,89328
503,725	-7,62998
503,933	-109,60089
504,141	-32,60131
504,35	69,36036
504,558	56,87591
504,766	-13,87274
504,974	92,24806
505,182	177,5515
505,39	11,09803
505,598	17,34061
505,806	98,49005
506,014	52,71438
506,222	102,65136
506,43	44,39127
506,638	81,84463
506,846	21,50231
507,054	19,42146
507,262	11,09803
507,47	61,03741
507,678	9,01716
507,886	104,732
508,094	-22,1965
508,301	15,25976
508,509	23,58315
508,717	44,39127
508,925	-7,62998
509,133	-80,46508
509,34	58,95666
509,548	-7,62998
509,756	23,58315
509,964	135,94109
510,171	52,71438
510,379	48,55284
510,587	11,09803
510,794	33,98727
511,002	15,25976
511,21	-9,7109
511,417	-20,11555
511,625	144,26333
511,832	-1,38726
512,04	-20,11555
512,247	-15,95368
512,455	-11,79182
512,663	94,32873
512,87	88,0867
513,078	92,24806
513,285	52,71438
513,492	21,50231
513,7	-43,00624
513,907	-15,95368
514,115	19,42146
514,322	73,5218
514,529	-24,27745
514,737	25,66398
514,944	61,03741
515,152	19,42146
515,359	42,31048
515,566	77,68323
515,773	15,25976
515,981	-9,7109
516,188	73,5218
516,395	77,68323
516,602	77,68323
516,81	0,69363
517,017	-82,54618
517,224	79,76393
517,431	-26,35841
517,638	31,90646
517,845	-5,54907
518,053	86,00602
518,26	71,44108
518,467	-90,87061
518,674	71,44108
518,881	77,68323
519,088	-22,1965
519,295	42,31048
519,502	98,49005
519,709	-40,92525
519,916	61,03741
520,123	69,36036
520,33	-9,7109
520,537	4,85541
520,744	6,93629
520,95	40,22969
521,157	65,19889
521,364	63,11815
521,571	-24,27745
521,778	38,14889
521,985	38,14889
522,191	46,47206
522,398	54,79515
522,605	-1,38726
522,812	0,69363
523,019	-40,92525
523,225	-28,43937
523,432	104,732
523,639	-40,92525
523,845	23,58315
524,052	23,58315
524,259	-132,49403
524,465	-32,60131
524,672	-9,7109
524,878	-3,46816
525,085	-28,43937
525,292	31,90646
525,498	52,71438
525,705	208,75803
525,911	-40,92525
526,118	-11,79182
526,324	25,66398
526,531	36,06808
526,737	140,10222
526,944	11,09803
527,15	75,60252
527,356	23,58315
527,563	23,58315
527,769	50,63361
527,975	65,19889
528,182	77,68323
528,388	50,63361
528,594	50,63361
528,801	102,65136
529,007	-61,73545
529,213	102,65136
529,42	40,22969
529,626	-26,35841
529,832	-5,54907
530,038	4,85541
530,244	-51,33029
530,451	-20,11555
530,657	-45,08725
530,863	69,36036
531,069	-24,27745
531,275	-107,51973
531,481	158,82706
531,687	25,66398
531,893	44,39127
532,099	-43,00624
532,305	-80,46508
532,511	-105,43857
532,717	56,87591
532,923	27,74481
533,129	13,1789
533,335	77,68323
533,541	106,81264
533,747	-15,95368
533,953	-9,7109
534,159	25,66398
534,365	102,65136
534,571	108,89328
534,777	27,74481
534,982	29,82564
535,188	2,77452
535,394	65,19889
535,6	31,90646
535,806	31,90646
536,011	33,98727
536,217	69,36036
536,423	-7,62998
536,628	46,47206
536,834	-90,87061
537,04	-30,52034
537,245	-22,1965
537,451	160,90757
537,657	63,11815
537,862	-67,97862
538,068	-84,62728
538,273	48,55284
538,479	81,84463
538,685	104,732
538,89	-7,62998
539,096	63,11815
539,301	-65,89756
539,507	88,0867
539,712	17,34061
539,917	15,25976
540,123	175,47103
540,328	-1,38726
540,534	-11,79182
540,739	106,81264
540,944	38,14889
541,15	81,84463
541,355	17,34061
541,56	175,47103
541,766	79,76393
541,971	58,95666
542,176	-86,70838
542,382	90,16738
542,587	6,93629
542,792	25,66398
542,997	44,39127
543,202	-15,95368
543,408	-70,05968
543,613	92,24806
543,818	-26,35841
544,023	-18,03461
544,228	98,49005
544,433	-3,46816
544,638	31,90646
544,843	79,76393
545,049	58,95666
545,254	-20,11555
545,459	-49,24927
545,664	17,34061
545,869	138,02166
546,074	40,22969
546,279	108,89328
546,483	11,09803
546,688	40,22969
546,893	17,34061
547,098	104,732
547,303	-84,62728
547,508	81,84463
547,713	-3,46816
547,918	23,58315
548,122	9,01716
548,327	46,47206
548,532	75,60252
548,737	154,66602
548,942	58,95666
549,146	77,68323
549,351	75,60252
549,556	23,58315
549,76	58,95666
549,965	98,49005
550,17	27,74481
550,374	-63,8165
550,579	46,47206
550,784	69,36036
550,988	-11,79182
551,193	86,00602
551,397	77,68323
551,602	79,76393
551,806	52,71438
552,011	-20,11555
552,215	44,39127
552,42	36,06808
552,624	96,40939
552,829	102,65136
553,033	4,85541
553,238	-1,38726
553,442	31,90646
553,646	58,95666
553,851	31,90646
554,055	129,69936
554,26	9,01716
554,464	-28,43937
554,668	73,5218
554,872	117,21577
555,077	-24,27745
555,281	44,39127
555,485	46,47206
555,69	113,05454
555,894	119,29638
556,098	202,51681
556,302	194,19512
556,506	221,24034
556,71	179,63197
556,915	227,48143
557,119	235,80282
557,323	335,65353
557,527	404,29465
557,731	391,81482
557,935	481,24996
558,139	398,05476
558,343	352,29427
558,547	608,10881
558,751	460,45184
558,955	375,17479
559,159	441,73315
559,363	618,50635
559,567	539,48231
559,771	606,02929
559,975	689,20671
560,179	581,0747
560,382	601,87023
560,586	545,72128
560,79	595,63162
560,994	578,99512
561,198	578,99512
561,402	734,95135
561,605	562,35834
561,809	578,99512
562,013	620,58584
562,217	541,56197
562,42	547,80093
562,624	633,06271
562,828	549,88057
563,031	612,26784
563,235	689,20671
563,439	599,7907
563,642	660,0954
563,846	601,87023
564,049	662,17481
564,253	587,31341
564,456	647,61887
564,66	527,00424
564,863	556,11948
565,067	566,51756
565,27	541,56197
565,474	587,31341
565,677	535,32297
565,881	645,53943
566,084	535,32297
566,288	551,96021
566,491	595,63162
566,694	497,88813
566,898	524,92455
567,101	697,52407
567,304	601,87023
567,508	558,1991
567,711	678,80991
567,914	610,18833
568,118	662,17481
568,321	564,43796
568,524	589,39297
568,727	620,58584
568,93	655,93658
569,134	587,31341
569,337	599,7907
569,54	678,80991
569,743	641,38054
569,946	691,28606
570,149	682,96864
570,352	647,61887
570,555	578,99512
570,758	518,68544
570,962	560,27873
571,165	606,02929
571,368	558,1991
571,571	716,23788
571,774	614,34734
571,976	701,68273
572,179	749,50603
572,382	685,048
572,585	689,20671
572,788	666,33361
572,991	830,59258
573,194	685,048
573,397	560,27873
573,6	691,28606
573,802	764,0605
574,005	840,98783
574,208	772,37724
574,411	768,21888
574,613	805,64355
574,816	820,19723
575,019	830,59258
575,222	824,35538
575,424	838,90879
575,627	940,77696
575,83	857,62001
576,032	874,25193
576,235	976,11667
576,438	857,62001
576,64	859,69902
576,843	905,43606
577,045	905,43606
577,248	984,43172
577,45	880,48883
577,653	822,2763
577,855	1032,24204
578,058	944,93463
578,26	1046,79258
578,463	974,03789
578,665	1102,91426
578,868	988,58923
579,07	1069,65732
579,272	1156,95463
579,475	1113,30685
579,677	1144,48402
579,879	1123,69934
580,082	1144,48402
580,284	1142,40557
580,486	1202,67902
580,689	1165,2683
580,891	1308,66924
581,093	1339,84093
581,295	1287,88764
581,498	1152,79778
581,7	1325,29425
581,902	1300,35665
582,104	1350,23131
582,306	1389,71386
582,508	1439,5846
582,71	1474,90841
582,913	1599,57207
583,115	1566,32972
583,317	1724,22252
583,519	1728,37731
583,721	1720,06772
583,923	1907,01974
584,125	1840,55122
584,327	2056,56073
584,529	2129,24772
584,731	2266,30312
584,933	2293,29711
585,135	2301,60284
585,336	2363,89407
585,538	2625,48392
585,74	2640,01512
585,942	2623,40802
586,144	2826,83023
586,346	2940,98169
586,547	3121,52796
586,749	3208,6792
586,951	3341,46976
587,153	3484,61925
587,355	3474,24663
587,556	3797,83252
587,758	3841,38586
587,96	4160,73079
588,161	4368,0535
588,363	4413,65977
588,565	4550,46822
588,766	4824,03793
588,968	5190,76883
589,17	5493,1799
589,371	5752,02656
589,573	5990,10931
589,774	6089,4667
589,976	6377,13373
590,177	6689,53947
590,379	7446,32558
590,58	7446,32558
590,782	7723,23828
590,983	8394,47258
591,185	8774,24409
591,386	9164,1389
591,587	9865,01563
591,789	10258,43909
591,99	10941,75567
592,192	11418,83666
592,393	12357,57326
592,594	12776,16731
592,796	13676,0193
592,997	13987,28461
593,198	14961,04663
593,399	15629,14418
593,601	16339,41131
593,802	17499,19466
594,003	18407,03776
594,204	18850,42509
594,405	20090,00758
594,607	20942,70391
594,808	22196,53128
595,009	22742,07212
595,21	23770,10584
595,411	24899,52491
595,612	25580,97292
595,813	26613,70597
596,014	27716,25432
596,215	28584,07575
596,416	29342,86119
596,617	30320,45259
596,818	31446,49835
597,019	32182,0459
597,22	32826,47281
597,421	33812,08528
597,622	34378,54515
597,823	35040,29472
598,024	35517,68939
598,225	36129,59991
598,426	36758,90794
598,627	37159,68257
598,827	37389,16711
599,028	37790,55845
599,229	38213,07087
599,43	38161,26844
599,63	38324,98707
599,831	38405,835
600,032	39317,03729
600,233	38349,86161
600,433	38461,81629
600,634	38206,85422
600,835	38285,60556
601,035	37624,98817
601,236	37875,43951
601,437	36922,0632
601,637	36734,13046
601,838	36278,07335
602,038	36261,57374
602,239	35402,40888
602,439	35186,33928
602,64	34353,90218
602,841	34388,81344
603,041	33260,63768
603,241	32822,37869
603,442	32443,81287
603,642	31842,75586
603,843	31356,66377
604,043	30681,29791
604,244	29864,0731
604,444	29811,1202
604,644	28836,24712
604,845	28431,58886
605,045	27366,9006
605,245	27204,44781
605,446	26942,53915
605,646	26203,78462
605,846	25365,97368
606,046	25321,35355
606,247	24461,52369
606,447	24021,52659
606,647	23587,62295
606,847	23474,07725
607,047	22474,3839
607,248	22279,68719
607,448	21876,05027
607,648	21326,24865
607,848	20701,16242
608,048	20847,31006
608,248	19937,67844
608,448	19336,27823
608,648	19301,72771
608,848	19179,77503
609,048	18520,95673
609,248	18223,92189
609,448	17576,58485
609,648	17607,13147
609,848	17142,69078
610,048	16922,59173
610,248	16117,02236
610,448	16074,1685
610,648	15543,37152
610,847	15702,65479
611,047	14983,532
611,247	14811,80564
611,447	14243,14408
611,647	14091,6878
611,846	14101,92248
612,046	13434,27264
612,246	13139,13331
612,446	13186,28295
612,645	12724,88399
612,845	12437,6201
613,045	12029,0699
613,244	11856,53761
613,444	11741,49019
613,644	11390,05718
613,843	10908,84076
614,043	10898,55451
614,243	10532,26064
614,442	10454,03717
614,642	10157,52979
614,841	9994,80821
615,041	9821,7461
615,24	9502,29402
615,44	9479,6178
615,639	9281,68617
615,839	8926,9254
616,038	8881,53687
616,237	8879,47369
616,437	8425,43913
616,636	8396,53705
616,836	8272,65904
617,035	8068,21845
617,234	7985,60158
617,434	7824,47485
617,633	7702,57626
617,832	7826,54078
618,032	7690,1788
618,231	7206,53871
618,43	7481,46124
618,629	7161,05456
618,828	7127,97372
619,028	7039,06297
619,227	6917,05499
619,426	6805,37249
619,625	6720,56757
619,824	6828,12372
620,023	6828,12372
620,222	6441,27826
620,422	6464,0382
620,621	6511,62545
620,82	6346,09454
621,019	6263,31859
621,218	6116,37432
621,417	5981,8291
621,616	5994,2494
621,815	5899,02324
622,014	5911,44454
622,213	5762,37912
622,411	5745,81498
622,61	5830,70342
622,809	5696,12101
623,008	5698,19164
623,207	5710,61533
623,406	5627,788
623,605	5578,08851
623,803	5424,834
624,002	5437,26084
624,201	5505,60597
624,4	5418,62052
624,598	5468,32734
624,797	5457,97194
624,996	5182,48244
625,195	5172,12435
625,393	5107,90212
625,592	5248,77188
625,791	5043,67624
625,989	5089,25627
626,188	4917,28573
626,386	5080,96913
626,585	5010,52598
626,784	4857,19356
626,982	4842,68809
627,181	4944,22258
627,379	4942,15054
627,578	4790,88136
627,776	4929,7182
627,975	4757,72384
628,173	4757,72384
628,371	4778,4474
628,57	4540,10449
628,768	4772,23037
628,967	4560,83186
629,165	4552,54095
629,363	4600,21287
629,562	4693,47848
629,76	4618,86658
629,958	4662,39076
630,157	4509,01276
630,355	4564,97729
630,553	4496,57584
630,751	4401,22187
630,95	4376,34568
631,148	4382,56477
631,346	4540,10449
631,544	4538,03173
631,742	4498,64867
631,94	4490,35733
632,139	4482,06594
632,337	4307,93353
632,535	4488,28449
632,733	4448,89979
632,931	4643,73774
633,129	4511,08556
633,327	4676,89847
633,525	4658,24567
633,723	4660,31822
633,921	4678,97098
634,119	4786,73672
634,317	4658,24567
634,515	4780,51973
634,713	4923,50198
634,91	4985,66266
635,108	5118,2608
635,306	5116,18907
635,504	5145,1929
635,702	5273,62941
635,9	5254,98632
636,097	5482,82474
636,295	5549,09608
636,493	5542,88331
636,691	5648,49543
636,888	5882,46127
637,086	5880,39101
637,284	5983,89916
637,482	6027,36947
637,679	6091,53654
637,877	6205,37132
638,075	6360,57962
638,272	6656,44171
638,47	6555,07263
638,667	6743,32087
638,865	6900,51029
639,062	7274,76058
639,26	7216,87569
639,457	7314,03745
639,655	7388,45198
639,852	7487,6615
640,05	7648,85264
640,247	7958,7493
640,445	8016,58388
640,642	8218,9726
640,84	8276,78862
641,037	8468,79027
641,234	8512,139
641,432	8875,34731
641,629	8588,5095
641,826	8926,9254
642,024	8885,66321
642,221	9160,01409
642,418	9234,25707
642,615	9428,0783
642,813	9498,17112
643,01	9527,03089
643,207	9809,38289
643,404	9772,29195
643,602	9877,37787
643,799	9879,43822
643,996	9869,1364
644,193	10322,272
644,39	10262,55752
644,587	10431,39185
644,784	10628,99816
644,981	10587,83496
645,178	10616,64946
645,375	10894,43997
645,572	10880,03886
645,769	11102,19237
645,966	11028,14952
646,163	11301,65508
646,36	11211,18469
646,557	11388,00145
646,754	11544,21804
646,951	11383,88998
647,148	11714,7798
647,345	11957,18712
647,542	11762,03589
647,738	12115,31851
647,935	12047,55273
648,132	12277,51627
648,329	12287,78055
648,526	12560,74925
648,722	12326,78331
648,919	12739,24374
649,116	12591,52778
649,312	12835,65071
649,509	12671,5449
649,706	12866,41577
649,902	12737,19237
650,099	12995,61255
650,296	12862,31385
650,492	13202,682
650,689	12964,85383
650,885	13378,9446
651,082	13401,48624
651,278	13331,80946
651,475	13145,28346
651,671	13157,58359
651,868	13167,83351
652,064	13231,37929
652,261	13012,01659
652,457	12932,04286
652,654	12946,39787
652,85	13089,9299
653,047	13069,42733
653,243	12954,60059
653,439	13050,97445
653,636	12905,38268
653,832	12677,69964
654,028	12745,39782
654,224	12519,70888
654,421	12523,81303
654,617	12351,41539
654,813	12361,67847
655,009	12029,0699
655,206	12265,19891
655,402	12016,74771
655,598	11914,05356
655,794	11842,15782
655,99	11585,32139
656,186	11509,27813
656,383	11299,59907
656,579	11038,43375
656,775	11346,88556
656,971	11005,52365
657,167	11143,32368
657,363	10754,53032
657,559	10867,69481
657,755	10507,55947
657,951	10489,033
658,147	10433,45055
658,343	10054,54589
658,539	10192,54082
658,735	10116,33807
658,93	9656,88549
659,126	9935,06541
659,322	9654,82449
659,518	9512,60115
659,714	9285,81029
659,91	9318,80245
660,105	9199,19882
660,301	9034,19649
660,497	8809,32224
660,693	8832,01901
660,888	8893,91583
661,084	8924,86234
661,28	8553,42128
661,476	8429,56792
661,671	8006,25658
661,867	8111,58895
662,062	7971,14277
662,258	7942,22439
662,454	7867,8582
662,649	7642,65354
662,845	7626,1224
663,04	7580,66009
663,236	7330,57456
663,431	7210,67351
663,627	7005,97767
663,822	7076,28249
664,018	6706,08792
664,213	6706,08792
664,409	6666,78488
664,604	6571,62342
664,799	6619,20534
664,995	6298,49922
665,19	6161,90865
665,386	6128,79298
665,581	5923,86569
665,776	6027,36947
665,972	5832,77378
666,167	5669,20247
666,362	5428,97629
666,557	5501,46396
666,753	5379,26768
666,948	5331,62814
667,143	5294,34359
667,338	5323,3428
667,533	4929,7182
667,728	5016,74173
667,924	5056,10734
668,119	4900,70889
668,314	4612,64871
668,509	4502,79431
668,704	4674,82595
668,899	4523,52233
669,094	4434,38932
669,289	4334,88423
669,484	4202,19814
669,679	4407,44083
669,874	4137,92316
670,069	3922,26664
670,264	3967,8894
670,459	4063,27705
670,654	3876,64222
670,849	3882,86383
671,043	3849,68156
671,238	3594,5638
671,433	3667,1635
671,628	3586,26643
671,823	3505,36423
672,018	3497,06628
672,212	3561,37399
672,407	3472,1721
672,602	3241,87812
672,797	3329,02123
672,991	3329,02123
673,186	3154,72912
673,381	3138,12865
673,575	3160,95425
673,77	3017,76882
673,965	3067,57424
674,159	3055,12307
674,354	2830,98137
674,548	3053,04786
674,743	3003,24187
674,937	2857,96345
675,132	2847,58579
675,326	2735,50179
675,521	2762,48586
675,715	2745,88034
675,91	2615,10439
676,104	2602,64885
676,299	2583,9653
676,493	2571,50945
676,687	2546,59739
676,882	2490,54347
677,076	2455,249
677,271	2453,17283
677,465	2534,14117
677,659	2446,94428
677,853	2449,02047
678,048	2268,3796
678,242	2434,4871
678,436	2274,60902
678,63	2276,68549
678,825	2237,23201
679,019	2208,16023
679,213	2137,55454
679,407	2199,85389
679,601	2145,8613
679,795	2093,94314
679,99	2125,09429
680,184	2060,71438
680,378	2112,63393
680,572	2102,25019
680,766	1967,25372
680,96	2137,55454
681,154	1913,25098
681,348	2039,94596
681,542	1888,32584
681,736	2021,25408
681,93	1923,63631
682,124	2002,56191
682,317	1981,79251
682,511	1877,94021
682,705	1965,17673
682,899	1815,62459
683,093	1809,39285
683,287	1915,32805
683,481	1759,53778
683,674	1927,79041
683,868	1819,77906
684,062	1892,48007
684,256	1799,00655
684,449	1842,62842
684,643	1709,68064
684,837	1871,70879
685,03	1747,07369
685,224	1674,36391
685,418	1709,68064
685,611	1651,51135
685,805	1724,22252
685,999	1649,43382
686,192	1607,88251
686,386	1643,20122
686,579	1580,87336
686,773	1703,44835
686,966	1595,41682
687,16	1674,36391
687,353	1547,63049
687,547	1790,69744
687,74	1651,51135
687,934	1680,59635
688,127	1636,96858
688,32	1558,01899
688,514	1578,79571
688,707	1663,97644
688,9	1599,57207
689,094	1647,35629
689,287	1587,1063
689,48	1468,67487
689,674	1595,41682
689,867	1479,06408
690,06	1499,84221
690,253	1493,60881
690,447	1576,71806
690,64	1634,89103
690,833	1564,25205
691,026	1603,72729
691,219	1555,9413
691,412	1564,25205
691,605	1618,27047
691,799	1670,20893
691,992	1560,09668
692,185	1574,6404
692,378	1603,72729
692,571	1485,29755
692,764	1668,13144
692,957	1609,96011
693,15	1533,08644
693,343	1493,60881
693,536	1618,27047
693,729	1651,51135
693,921	1543,47507
694,114	1732,53209
694,307	1576,71806
694,5	1547,63049
694,693	1630,73591
694,886	1643,20122
695,079	1520,61996
695,271	1497,76441
695,464	1445,81829
695,657	1533,08644
695,85	1456,2077
696,042	1476,98624
696,235	1595,41682
696,428	1568,4074
696,62	1508,15335
696,813	1657,74391
697,006	1585,02866
697,198	1630,73591
697,391	1734,60947
697,584	1774,07906
697,776	1533,08644
697,969	1734,60947
698,161	1782,38828
698,354	1618,27047
698,546	1582,95101
698,739	1728,37731
698,931	1672,28642
699,124	1690,98368
699,316	1701,37092
699,509	1541,39735
699,701	1663,97644
699,893	1728,37731
700,086	1666,05394
700,278	1688,90622
700,47	1769,92442
700,663	1803,16108
700,855	1742,91897
701,047	1703,44835
701,24	1591,26157
701,432	1788,62016
701,624	1784,46557
701,816	1776,15637
702,008	1680,59635
702,201	1749,15105
702,393	1682,67382
702,585	1618,27047
702,777	1734,60947
702,969	1786,54287
703,161	1877,94021
703,353	1890,40295
703,546	1996,33113
703,738	1722,14512
703,93	1796,92928
704,122	1813,54735
704,314	1815,62459
704,506	1865,47734
704,698	1956,86876
704,89	1761,61512
705,082	1803,16108
705,273	1732,53209
705,465	1778,23367
705,657	1952,71475
705,849	1722,14512
706,041	1809,39285
706,233	1724,22252
706,425	1826,01075
706,616	1867,5545
706,808	1886,24872
707	1776,15637
707,192	1761,61512
707,383	1747,07369
707,575	1867,5545
707,767	1875,86308
707,959	1875,86308
708,15	1672,28642
708,342	1882,09447
708,534	1921,55925
708,725	1755,3831
708,917	1788,62016
709,108	1861,32303
709,3	1628,65835
709,491	1690,98368
709,683	1865,47734
709,875	1782,38828
710,066	1796,92928
710,258	1921,55925
710,449	1661,89893
710,64	1736,68685
710,832	1990,10031
711,023	1728,37731
711,215	1998,40806
711,406	1938,17562
711,597	1767,8471
711,789	1757,46044
711,98	1713,83548
712,171	1803,16108
712,363	1819,77906
712,554	1751,2284
712,745	1778,23367
712,937	1757,46044
713,128	1772,00174
713,319	1759,53778
713,51	1651,51135
713,701	1763,69245
713,893	1753,30575
714,084	1828,08797
714,275	1713,83548
714,466	1738,76423
714,657	1678,51887
714,848	1659,82142
715,039	1772,00174
715,23	1790,69744
715,421	1678,51887
715,612	1680,59635
715,803	1705,52579
715,994	1624,50321
716,185	1724,22252
716,376	1555,9413
716,567	1753,30575
716,758	1636,96858
716,949	1549,7082
717,14	1753,30575
717,331	1661,89893
717,522	1522,69772
717,712	1468,67487
717,903	1607,88251
718,094	1622,42563
718,285	1539,31963
718,476	1541,39735
718,666	1468,67487
718,857	1400,10378
719,048	1487,37537
719,238	1558,01899
719,429	1636,96858
719,62	1439,5846
719,81	1433,35088
720,001	1439,5846
720,192	1429,19504
720,382	1398,0258
720,573	1416,72745
720,763	1395,94782
720,954	1312,82552
721,144	1481,14191
721,335	1499,84221
721,525	1292,04399
721,716	1381,40186
721,906	1339,84093
722,097	1221,38391
722,287	1449,97407
722,478	1329,45047
722,668	1267,10565
722,858	1188,13056
723,049	1331,52857
723,239	1213,07067
723,429	1127,8563
723,62	1246,32327
723,81	1202,67902
724	1183,97382
724,191	1277,49669
724,381	1260,87098
724,571	1165,2683
724,761	1181,89545
724,951	1150,71934
725,142	1094,60012
725,332	1090,44303
725,522	1104,99279
725,712	1038,47801
725,902	1100,83573
726,092	990,66797
726,282	1121,62085
726,472	974,03789
726,662	1086,28592
726,852	980,2742
727,042	930,3827
727,232	1036,39936
727,422	1005,21908
727,612	1132,01326
727,802	978,19544
727,992	882,56779
728,182	1028,0847
728,372	915,83056
728,562	868,01499
728,752	890,88358
728,942	947,01346
729,131	969,88033
729,321	971,95912
729,511	984,43172
729,701	930,3827
729,89	1040,55666
730,08	857,62001
730,27	795,24795
730,46	843,06687
730,649	774,45642
730,839	705,84136
731,029	643,45999
731,218	695,44474
731,408	576,91554
731,597	668,41301
731,787	645,53943
731,977	793,16881
732,166	678,80991
732,356	805,64355
732,545	797,32708
732,735	716,23788
732,924	689,20671
733,114	645,53943
733,303	637,22164
733,492	695,44474
733,682	680,88928
733,871	633,06271
734,061	595,63162
734,25	682,96864
734,439	558,1991
734,629	533,2433
734,818	468,77115
735,007	616,42685
735,197	543,64163
735,386	647,61887
735,575	556,11948
735,764	576,91554
735,954	535,32297
736,143	535,32297
736,332	512,4463
736,521	641,38054
736,71	597,71116
736,899	373,09477
737,088	468,77115
737,278	433,41361
737,467	564,43796
737,656	524,92455
737,845	558,1991
738,034	431,33371
738,223	377,25481
738,412	529,08393
738,601	518,68544
738,79	389,73483
738,979	408,45456
739,168	427,17391
739,356	433,41361
739,545	439,65327
739,734	454,21232
739,923	410,5345
740,112	472,93077
740,301	539,48231
740,489	512,4463
740,678	366,85467
740,867	373,09477
741,056	608,10881
741,245	366,85467
741,433	379,33483
741,622	452,13247
741,811	366,85467
741,999	418,85424
742,188	352,29427
742,377	341,89384
742,565	364,77462
742,754	356,45441
742,942	506,20711
743,131	298,21079
743,319	410,5345
743,508	371,01474
743,697	437,57339
743,885	395,97478
744,073	350,21419
744,262	235,80282
744,45	267,00734
744,639	237,88315
744,827	379,33483
745,016	352,29427
745,204	331,4933
745,392	310,69187
745,581	341,89384
745,769	333,57342
745,957	294,05039
746,146	395,97478
746,334	335,65353
746,522	285,72954
746,71	356,45441
746,899	306,53153
747,087	279,48885
747,275	319,0125
747,463	190,03424
747,651	283,64931
747,84	350,21419
748,028	371,01474
748,216	264,92707
748,404	346,05403
748,592	339,81375
748,78	298,21079
748,968	304,45135
749,156	258,68624
749,344	250,36506
749,532	296,13059
749,72	275,32836
749,908	212,91882
750,096	219,15997
750,284	264,92707
750,472	200,4364
750,66	310,69187
750,847	283,64931
751,035	306,53153
751,223	187,9538
751,411	273,24811
751,599	210,83843
751,787	214,99921
751,974	233,72248
752,162	242,04381
752,35	229,56179
752,537	306,53153
752,725	283,64931
752,913	210,83843
753,101	310,69187
753,288	138,02166
753,476	221,24034
753,663	269,0876
753,851	194,19512
754,039	231,64214
754,226	262,8468
754,414	312,77204
754,601	306,53153
754,789	152,58549
754,976	179,63197
755,164	262,8468
755,351	187,9538
755,539	162,98808
755,726	298,21079
755,913	183,7929
756,101	196,27555
756,288	158,82706
756,476	217,07959
756,663	262,8468
756,85	210,83843
757,037	312,77204
757,225	115,13516
757,412	190,03424
757,599	187,9538
757,787	443,81302
757,974	154,66602
758,161	267,00734
758,348	221,24034
758,535	321,09265
758,722	119,29638
758,91	104,732
759,097	177,5515
759,284	208,75803
759,471	154,66602
759,658	144,26333
759,845	200,4364
760,032	165,06858
760,219	227,48143
760,406	187,9538
760,593	235,80282
760,78	235,80282
760,967	158,82706
761,154	289,88997
761,341	225,40107
761,528	214,99921
761,715	177,5515
761,901	123,45759
762,088	117,21577
762,275	140,10222
762,462	212,91882
762,649	260,76652
762,835	125,53819
763,022	152,58549
763,209	162,98808
763,396	117,21577
763,582	310,69187
763,769	227,48143
763,956	194,19512
764,142	208,75803
764,329	152,58549
764,516	239,96348
764,702	181,71244
764,889	194,19512
765,075	173,39055
765,262	181,71244
765,448	175,47103
765,635	129,69936
765,821	214,99921
766,008	229,56179
766,194	271,16786
766,381	214,99921
766,567	133,86052
766,754	133,86052
766,94	212,91882
767,127	154,66602
767,313	96,40939
767,499	227,48143
767,686	210,83843
767,872	262,8468
768,058	200,4364
768,244	133,86052
768,431	185,87335
768,617	214,99921
768,803	212,91882
768,989	252,44536
769,176	127,61878
769,362	185,87335
769,548	233,72248
769,734	92,24806
769,92	119,29638
770,106	248,28476
770,292	210,83843
770,478	69,36036
770,664	156,74654
770,851	156,74654
771,037	33,98727
771,223	198,35598
771,409	123,45759
771,594	179,63197
771,78	162,98808
771,966	210,83843
772,152	83,92533
772,338	208,75803
772,524	171,31006
772,71	121,37699
772,896	140,10222
773,082	219,15997
773,267	223,32071
773,453	146,34388
773,639	125,53819
773,825	125,53819
774,011	160,90757
774,196	129,69936
774,382	167,14908
774,568	152,58549
774,753	169,22958
774,939	181,71244
775,125	250,36506
775,31	110,97391
775,496	144,26333
775,681	256,60595
775,867	142,18278
776,053	239,96348
776,238	40,22969
776,424	223,32071
776,609	96,40939
776,795	115,13516
776,98	212,91882
777,166	196,27555
777,351	100,57071
777,536	92,24806
777,722	-7,62998
777,907	204,59723
778,093	121,37699
778,278	48,55284
778,463	177,5515
778,649	102,65136
778,834	121,37699
779,019	162,98808
779,204	108,89328
779,39	152,58549
779,575	173,39055
779,76	229,56179
779,945	183,7929
780,13	106,81264
780,316	194,19512
780,501	79,76393
780,686	125,53819
780,871	77,68323
781,056	58,95666
781,241	69,36036
781,426	171,31006
781,611	131,77995
781,796	15,25976
781,981	98,49005
782,166	181,71244
782,351	129,69936
782,536	171,31006
782,721	71,44108
782,906	92,24806
783,091	-3,46816
783,276	133,86052
783,461	321,09265
783,646	125,53819
783,83	140,10222
784,015	133,86052
784,2	69,36036
784,385	171,31006
784,57	106,81264
784,754	187,9538
784,939	127,61878
785,124	181,71244
785,308	158,82706
785,493	29,82564
785,678	171,31006
785,862	148,42442
786,047	125,53819
786,232	185,87335
786,416	67,27963
786,601	-7,62998
786,785	75,60252
786,97	131,77995
787,154	177,5515
787,339	148,42442
787,523	131,77995
787,708	148,42442
787,892	129,69936
788,077	140,10222
788,261	50,63361
788,446	117,21577
788,63	54,79515
788,814	13,1789
788,999	162,98808
789,183	177,5515
789,367	56,87591
789,552	162,98808
789,736	217,07959
789,92	63,11815
790,104	198,35598
790,289	113,05454
790,473	104,732
790,657	69,36036
790,841	200,4364
791,025	121,37699
791,21	100,57071
791,394	-45,08725
791,578	202,51681
791,762	173,39055
791,946	117,21577
792,13	36,06808
792,314	212,91882
792,498	165,06858
792,682	167,14908
792,866	181,71244
793,05	148,42442
793,234	88,0867
793,418	108,89328
793,602	19,42146
793,786	125,53819
793,97	42,31048
794,153	42,31048
794,337	6,93629
794,521	102,65136
794,705	140,10222
794,889	73,5218
795,073	61,03741
795,256	125,53819
795,44	106,81264
795,624	129,69936
795,807	88,0867
795,991	148,42442
796,175	110,97391
796,358	133,86052
796,542	171,31006
796,726	183,7929
796,909	-40,92525
797,093	77,68323
797,277	106,81264
797,46	96,40939
797,644	73,5218
797,827	115,13516
798,011	11,09803
798,194	9,01716
798,378	104,732
798,561	25,66398
798,744	104,732
798,928	102,65136
799,111	52,71438
799,295	104,732
799,478	-13,87274
799,661	29,82564
799,845	40,22969
800,028	119,29638
800,211	129,69936
800,395	165,06858
800,578	125,53819
800,761	150,50496
800,944	77,68323
801,127	-36,76327
801,311	21,50231
801,494	81,84463
801,677	140,10222
801,86	135,94109
802,043	121,37699
802,226	121,37699
802,409	100,57071
802,593	92,24806
802,776	40,22969
802,959	129,69936
803,142	117,21577
803,325	52,71438
803,508	27,74481
803,691	138,02166
803,874	17,34061
804,056	144,26333
804,239	36,06808
804,422	127,61878
804,605	50,63361
804,788	123,45759
804,971	148,42442
805,154	40,22969
805,336	248,28476
805,519	98,49005
805,702	158,82706
805,885	13,1789
806,068	-24,27745
806,25	58,95666
806,433	150,50496
806,616	90,16738
806,798	58,95666
806,981	90,16738
807,164	77,68323
807,346	90,16738
807,529	-3,46816
807,711	73,5218
807,894	67,27963
808,076	61,03741
808,259	4,85541
808,442	-32,60131
808,624	92,24806
808,806	115,13516
808,989	15,25976
809,171	113,05454
809,354	86,00602
809,536	86,00602
809,719	96,40939
809,901	0,69363
810,083	79,76393
810,266	69,36036
810,448	56,87591
810,63	-3,46816
810,813	127,61878
810,995	38,14889
811,177	140,10222
811,359	113,05454
811,542	158,82706
811,724	140,10222
811,906	29,82564
812,088	38,14889
812,27	75,60252
812,452	52,71438
812,634	-49,24927
812,817	-65,89756
812,999	113,05454
813,181	65,19889
813,363	90,16738
813,545	56,87591
813,727	27,74481
813,909	0,69363
814,091	13,1789
814,273	21,50231
814,455	71,44108
814,637	-13,87274
814,818	52,71438
815	9,01716
815,182	108,89328
815,364	21,50231
815,546	6,93629
815,728	185,87335
815,909	-5,54907
816,091	165,06858
816,273	38,14889
816,455	121,37699
816,636	98,49005
816,818	-5,54907
817	96,40939
817,182	4,85541
817,363	79,76393
817,545	92,24806
817,726	90,16738
817,908	121,37699
818,09	33,98727
818,271	187,9538
818,453	65,19889
818,634	13,1789
818,816	88,0867
818,997	56,87591
819,179	67,27963
819,36	79,76393
819,542	-28,43937
819,723	100,57071
819,905	-3,46816
820,086	52,71438
820,267	29,82564
820,449	71,44108
820,63	2,77452
820,811	29,82564
820,993	102,65136
821,174	242,04381
821,355	96,40939
821,536	23,58315
821,718	83,92533
821,899	-5,54907
822,08	-5,54907
822,261	42,31048
822,442	75,60252
822,624	65,19889
822,805	2,77452
822,986	-55,49234
823,167	-34,68229
823,348	-88,78949
823,529	17,34061
823,71	77,68323
823,891	2,77452
824,072	54,79515
824,253	-59,65441
824,434	19,42146
824,615	119,29638
824,796	144,26333
824,977	79,76393
825,158	75,60252
825,339	36,06808
825,52	23,58315
825,7	94,32873
825,881	13,1789
826,062	6,93629
826,243	44,39127
826,424	25,66398
826,604	-1,38726
826,785	-132,49403
826,966	50,63361
827,147	2,77452
827,327	202,51681
827,508	25,66398
827,689	65,19889
827,869	11,09803
828,05	23,58315
828,231	15,25976
828,411	69,36036
828,592	-20,11555
828,772	106,81264
828,953	13,1789
829,133	33,98727
829,314	135,94109
829,494	9,01716
829,675	-15,95368
829,855	-28,43937
830,036	-5,54907
830,216	102,65136
830,396	-43,00624
830,577	52,71438
830,757	-57,57337
830,938	61,03741
831,118	98,49005
831,298	-49,24927
831,479	86,00602
831,659	123,45759
831,839	-30,52034
832,019	88,0867
832,199	36,06808
832,38	-22,1965
832,56	-24,27745
832,74	-63,8165
832,92	21,50231
833,1	-84,62728
833,28	-51,33029
833,461	131,77995
833,641	-55,49234
833,821	-3,46816
834,001	-32,60131
834,181	100,57071
834,361	83,92533
834,541	-13,87274
834,721	-90,87061
834,901	-18,03461
835,081	40,22969
835,261	-22,1965
835,44	-13,87274
835,62	-38,84425
835,8	17,34061
835,98	54,79515
836,16	81,84463
836,34	69,36036
836,52	-26,35841
836,699	-72,14075
836,879	88,0867
837,059	71,44108
837,239	-1,38726
837,418	-65,89756
837,598	56,87591
837,778	0,69363
837,957	-11,79182
838,137	-15,95368
838,317	31,90646
838,496	-65,89756
838,676	-22,1965
838,855	-3,46816
839,035	148,42442
839,214	67,27963
839,394	90,16738
839,573	-26,35841
839,753	83,92533
839,932	113,05454
840,112	48,55284
840,291	158,82706
840,471	50,63361
840,65	15,25976
840,829	46,47206
841,009	58,95666
841,188	15,25976
841,367	31,90646
841,547	0,69363
841,726	4,85541
841,905	-76,3029
842,085	88,0867
842,264	-3,46816
842,443	31,90646
842,622	92,24806
842,801	-32,60131
842,981	-20,11555
843,16	25,66398
843,339	-32,60131
843,518	110,97391
843,697	77,68323
843,876	-99,19513
844,055	-13,87274
844,234	-47,16826
844,413	6,93629
844,592	-13,87274
844,771	-51,33029
844,95	52,71438
845,129	11,09803
845,308	58,95666
845,487	-13,87274
845,666	-49,24927
845,845	-72,14075
846,024	-59,65441
846,202	19,42146
846,381	-13,87274
846,56	15,25976
846,739	81,84463
846,918	-15,95368
847,096	11,09803
847,275	44,39127
847,454	13,1789
847,633	92,24806
847,811	-5,54907
847,99	2,77452
848,169	2,77452
848,347	79,76393
848,526	27,74481
848,704	-18,03461
848,883	56,87591
849,062	52,71438
849,24	29,82564
849,419	44,39127
849,597	-7,62998
849,776	-74,22182
849,954	48,55284
850,133	133,86052
850,311	-55,49234
850,49	127,61878
850,668	56,87591
850,846	9,01716
851,025	-67,97862
851,203	-59,65441
851,381	40,22969
851,56	0,69363
851,738	-38,84425
851,916	4,85541
852,095	0,69363
852,273	-3,46816
852,451	19,42146
852,629	-18,03461
852,807	100,57071
852,986	44,39127
853,164	33,98727
853,342	81,84463
853,52	9,01716
853,698	-1,38726
853,876	40,22969
854,054	86,00602
854,232	42,31048
854,41	81,84463
854,588	38,14889
854,766	25,66398
854,944	73,5218
855,122	-88,78949
855,3	104,732
855,478	113,05454
855,656	156,74654
855,834	108,89328
856,012	-63,8165
856,19	-28,43937
856,368	54,79515
856,545	-11,79182
856,723	48,55284
856,901	69,36036
857,079	13,1789
857,256	29,82564
857,434	33,98727
857,612	54,79515
857,79	-22,1965
857,967	9,01716
858,145	71,44108
858,323	61,03741
858,5	46,47206
858,678	102,65136
858,855	-55,49234
859,033	129,69936
859,211	-76,3029
859,388	25,66398
859,566	-26,35841
859,743	48,55284
859,921	46,47206
860,098	142,18278
860,276	73,5218
860,453	13,1789
860,63	42,31048
860,808	13,1789
860,985	11,09803
861,162	67,27963
861,34	-7,62998
861,517	-38,84425
861,694	38,14889
861,872	11,09803
862,049	-38,84425
862,226	-55,49234
862,403	-26,35841
862,581	-111,68206
862,758	2,77452
862,935	-22,1965
863,112	15,25976
863,289	-74,22182
863,467	108,89328
863,644	-5,54907
863,821	98,49005
863,998	4,85541
864,175	102,65136
864,352	19,42146
864,529	52,71438
864,706	67,27963
864,883	-45,08725
865,06	-63,8165
865,237	40,22969
865,414	69,36036
865,591	-9,7109
865,768	17,34061
865,944	185,87335
866,121	54,79515
866,298	90,16738
866,475	88,0867
866,652	94,32873
866,829	-34,68229
867,005	-49,24927
867,182	-40,92525
867,359	67,27963
867,536	31,90646
867,712	-28,43937
867,889	-1,38726
868,066	61,03741
868,242	-51,33029
868,419	4,85541
868,596	83,92533
868,772	-3,46816
868,949	94,32873
869,125	54,79515
869,302	63,11815
869,478	15,25976
869,655	104,732
869,831	77,68323
870,008	67,27963
870,184	179,63197
870,361	38,14889
870,537	-11,79182
870,714	2,77452
870,89	-51,33029
871,066	42,31048
871,243	154,66602
871,419	21,50231
871,595	90,16738
871,772	21,50231
871,948	-18,03461
872,124	-24,27745
872,3	25,66398
872,477	75,60252
872,653	150,50496
872,829	38,14889
873,005	65,19889
873,181	-30,52034
873,357	40,22969
873,533	27,74481
873,71	63,11815
873,886	-28,43937
874,062	2,77452
874,238	88,0867
874,414	40,22969
874,59	-45,08725
874,766	-15,95368
874,942	90,16738
875,118	-78,38399
875,294	-74,22182
875,47	-111,68206
875,645	-22,1965
875,821	-32,60131
875,997	46,47206
876,173	-26,35841
876,349	46,47206
876,525	-47,16826
876,7	-9,7109
876,876	21,50231
877,052	42,31048
877,228	17,34061
877,403	65,19889
877,579	-3,46816
877,755	108,89328
877,931	27,74481
878,106	36,06808
878,282	-32,60131
878,457	-45,08725
878,633	81,84463
878,809	61,03741
878,984	-63,8165
879,16	2,77452
879,335	-65,89756
879,511	-45,08725
879,686	-30,52034
879,862	144,26333
880,037	-1,38726
880,213	-26,35841
880,388	-11,79182
880,563	11,09803
880,739	-5,54907
880,914	67,27963
881,089	-3,46816
881,265	-7,62998
881,44	-9,7109
881,615	86,00602
881,791	131,77995
881,966	-3,46816
882,141	27,74481
882,316	104,732
882,492	-26,35841
882,667	108,89328
882,842	-20,11555
883,017	-34,68229
883,192	-115,84441
883,367	38,14889
883,542	44,39127
883,718	-74,22182
883,893	-32,60131
884,068	6,93629
884,243	63,11815
884,418	-59,65441
884,593	-18,03461
884,768	-1,38726
884,943	-20,11555
885,117	-24,27745
885,292	38,14889
885,467	13,1789
885,642	-20,11555
885,817	17,34061
885,992	69,36036
886,167	92,24806
886,342	58,95666
886,516	-32,60131
886,691	102,65136
886,866	94,32873
887,041	102,65136
887,215	135,94109
887,39	-18,03461
887,565	11,09803
887,739	6,93629
887,914	6,93629
888,089	15,25976
888,263	-28,43937
888,438	36,06808
888,612	125,53819
888,787	100,57071
888,962	-20,11555
889,136	17,34061
889,311	2,77452
889,485	115,13516
889,659	-43,00624
889,834	4,85541
890,008	15,25976
890,183	2,77452
890,357	-190,77034
890,532	-7,62998
890,706	92,24806
890,88	67,27963
891,055	-88,78949
891,229	140,10222
891,403	61,03741
891,577	23,58315
891,752	-155,3878
891,926	-1,38726
892,1	67,27963
892,274	90,16738
892,449	13,1789
892,623	-34,68229
892,797	-103,35742
892,971	11,09803
893,145	-7,62998
893,319	-99,19513
893,493	-70,05968
893,667	121,37699
893,841	110,97391
894,015	-76,3029
894,189	-34,68229
894,363	104,732
894,537	-65,89756
894,711	-13,87274
894,885	83,92533
895,059	-70,05968
895,233	-32,60131
895,407	-34,68229
895,581	23,58315
895,755	-76,3029
895,928	-78,38399
896,102	48,55284
896,276	-15,95368
896,45	88,0867
896,623	0,69363
896,797	-78,38399
896,971	4,85541
897,145	98,49005
897,318	54,79515
897,492	40,22969
897,666	-99,19513
897,839	42,31048
898,013	-57,57337
898,186	21,50231
898,36	-20,11555
898,534	31,90646
898,707	15,25976
898,881	-9,7109
899,054	-65,89756
899,228	29,82564
899,401	-107,51973
899,574	4,85541
899,748	-24,27745
899,921	36,06808
900,095	-3,46816
900,268	27,74481
900,441	154,66602
900,615	-43,00624
900,788	-22,1965
900,961	4,85541
901,135	-13,87274
901,308	92,24806
901,481	13,1789
901,654	73,5218
901,828	29,82564
902,001	-18,03461
902,174	-76,3029
902,347	21,50231
902,52	17,34061
902,693	33,98727
902,866	96,40939
903,04	42,31048
903,213	21,50231
903,386	-59,65441
903,559	98,49005
903,732	-24,27745
903,905	19,42146
904,078	-7,62998
904,251	-70,05968
904,424	-32,60131
904,596	52,71438
904,769	19,42146
904,942	-76,3029
905,115	33,98727
905,288	19,42146
905,461	6,93629
905,634	-9,7109
905,806	-82,54618
905,979	19,42146
906,152	61,03741
906,325	38,14889
906,497	79,76393
906,67	11,09803
906,843	11,09803
907,015	-117,92559
907,188	-49,24927
907,361	-70,05968
907,533	40,22969
907,706	-51,33029
907,878	21,50231
908,051	23,58315
908,224	0,69363
908,396	-15,95368
908,569	21,50231
908,741	-53,41131
908,914	133,86052
909,086	44,39127
909,258	61,03741
909,431	-111,68206
909,603	9,01716
909,776	15,25976
909,948	6,93629
910,12	15,25976
910,293	-3,46816
910,465	44,39127
910,637	4,85541
910,81	58,95666
910,982	0,69363
911,154	-28,43937
911,326	-30,52034
911,498	-86,70838
911,671	-5,54907
911,843	-13,87274
912,015	-11,79182
912,187	65,19889
912,359	-74,22182
912,531	31,90646
912,703	-47,16826
912,875	-144,98146
913,047	129,69936
913,219	106,81264
913,391	-24,27745
913,563	15,25976
913,735	17,34061
913,907	171,31006
914,079	75,60252
914,251	31,90646
914,423	-65,89756
914,595	-9,7109
914,767	-99,19513
914,939	86,00602
915,11	-24,27745
915,282	-26,35841
915,454	4,85541
915,626	-13,87274
915,797	-72,14075
915,969	65,19889
916,141	-24,27745
916,313	17,34061
916,484	31,90646
916,656	56,87591
916,828	9,01716
916,999	81,84463
917,171	-67,97862
917,342	-24,27745
917,514	-53,41131
917,685	-51,33029
917,857	-20,11555
918,028	-53,41131
918,2	-26,35841
918,371	-120,00678
918,543	13,1789
918,714	-15,95368
918,886	-28,43937
919,057	-11,79182
919,229	-3,46816
919,4	-7,62998
919,571	-34,68229
919,743	33,98727
919,914	-15,95368
920,085	67,27963
920,256	11,09803
920,428	4,85541
920,599	36,06808
920,77	11,09803
920,941	52,71438
921,113	86,00602
921,284	25,66398
921,455	94,32873
921,626	-51,33029
921,797	69,36036
921,968	36,06808
922,139	36,06808
922,31	-5,54907
922,481	38,14889
922,652	119,29638
922,823	61,03741
922,994	-26,35841
923,165	56,87591
923,336	-65,89756
923,507	31,90646
923,678	144,26333
923,849	13,1789
924,02	-7,62998
924,191	-67,97862
924,362	9,01716
924,532	-88,78949
924,703	96,40939
924,874	-63,8165
925,045	0,69363
925,215	11,09803
925,386	15,25976
925,557	9,01716
925,728	36,06808
925,898	-1,38726
926,069	-63,8165
926,24	88,0867
926,41	-30,52034
926,581	36,06808
926,751	25,66398
926,922	23,58315
927,092	-7,62998
927,263	-13,87274
927,433	-18,03461
927,604	-9,7109
927,774	-78,38399
927,945	-1,38726
928,115	106,81264
928,286	-74,22182
928,456	67,27963
928,627	-40,92525
928,797	25,66398
928,967	54,79515
929,138	-18,03461
929,308	69,36036
929,478	-5,54907
929,648	2,77452
929,819	58,95666
929,989	-20,11555
930,159	31,90646
930,329	-63,8165
930,5	-43,00624
930,67	-18,03461
930,84	-57,57337
931,01	-32,60131
931,18	86,00602
931,35	38,14889
931,52	-3,46816
931,69	-22,1965
931,86	-47,16826
932,03	-34,68229
932,2	-3,46816
932,37	-95,03286
932,54	27,74481
932,71	-34,68229
932,88	29,82564
933,05	9,01716
933,22	-103,35742
933,39	-9,7109
933,56	17,34061
933,73	-11,79182
933,899	-9,7109
934,069	67,27963
934,239	67,27963
934,409	44,39127
934,578	25,66398
934,748	4,85541
934,918	-18,03461
935,088	98,49005
935,257	-67,97862
935,427	69,36036
935,596	46,47206
935,766	0,69363
935,936	-53,41131
936,105	-45,08725
936,275	-18,03461
936,444	0,69363
936,614	36,06808
936,783	33,98727
936,953	0,69363
937,122	-74,22182
937,292	-105,43857
937,461	-22,1965
937,631	69,36036
937,8	69,36036
937,969	-84,62728
938,139	40,22969
938,308	11,09803
938,477	73,5218
938,647	-9,7109
938,816	13,1789
938,985	58,95666
939,155	-9,7109
939,324	-40,92525
939,493	-103,35742
939,662	54,79515
939,831	-30,52034
940,001	71,44108
940,17	-1,38726
940,339	-3,46816
940,508	13,1789
940,677	127,61878
940,846	117,21577
941,015	-7,62998
941,184	-7,62998
941,353	-15,95368
941,522	-80,46508
941,691	73,5218
941,86	-76,3029
942,029	77,68323
942,198	19,42146
942,367	-55,49234
942,536	38,14889
942,705	-53,41131
942,873	-30,52034
943,042	-51,33029
943,211	-18,03461
943,38	42,31048
943,549	-7,62998
943,717	-22,1965
943,886	-65,89756
944,055	-11,79182
944,224	11,09803
944,392	115,13516
944,561	-34,68229
944,73	-43,00624
944,898	0,69363
945,067	-47,16826
945,235	67,27963
945,404	4,85541
945,572	13,1789
945,741	-5,54907
945,91	-51,33029
946,078	-34,68229
946,247	13,1789
946,415	29,82564
946,583	44,39127
946,752	-65,89756
946,92	9,01716
947,089	17,34061
947,257	-3,46816
947,425	23,58315
947,594	102,65136
947,762	-18,03461
947,93	-80,46508
948,099	38,14889
948,267	75,60252
948,435	-18,03461
948,603	-70,05968
948,772	-59,65441
948,94	21,50231
949,108	31,90646
949,276	-20,11555
949,444	0,69363
949,612	33,98727
949,78	-49,24927
949,948	4,85541
950,116	-49,24927
950,285	40,22969
950,453	65,19889
950,621	15,25976
950,789	58,95666
950,957	31,90646
951,124	71,44108
951,292	-65,89756
951,46	-82,54618
951,628	48,55284
951,796	-3,46816
951,964	-45,08725
952,132	-1,38726
952,3	27,74481
952,467	38,14889
952,635	50,63361
952,803	-15,95368
952,971	-74,22182
953,138	-1,38726
953,306	-20,11555
953,474	15,25976
953,641	-51,33029
953,809	-72,14075
953,977	4,85541
954,144	0,69363
954,312	-11,79182
954,48	13,1789
954,647	-30,52034
954,815	142,18278
954,982	-55,49234
955,15	13,1789
955,317	-74,22182
955,485	-51,33029
955,652	56,87591
955,82	-63,8165
955,987	-36,76327
956,154	19,42146
956,322	-53,41131
956,489	33,98727
956,656	6,93629
956,824	4,85541
956,991	-9,7109
957,158	-45,08725
957,326	127,61878
957,493	121,37699
957,66	58,95666
957,827	13,1789
957,994	4,85541
958,162	-147,06272
958,329	83,92533
958,496	-51,33029
958,663	21,50231
958,83	104,732
958,997	44,39127
959,164	-59,65441
959,331	-15,95368
959,498	0,69363
959,665	42,31048
959,832	-84,62728
959,999	21,50231
960,166	81,84463
960,333	-1,38726
960,5	44,39127
960,667	4,85541
960,834	17,34061
961,001	88,0867
961,168	-74,22182
961,334	-84,62728
961,501	79,76393
961,668	86,00602
961,835	50,63361
962,002	-43,00624
962,168	-49,24927
962,335	21,50231
962,502	115,13516
962,668	23,58315
962,835	-99,19513
963,002	-1,38726
963,168	33,98727
963,335	-3,46816
963,502	-28,43937
963,668	-1,38726
963,835	121,37699
964,001	102,65136
964,168	-103,35742
964,334	0,69363
964,501	-53,41131
964,667	-61,73545
964,834	15,25976
965	13,1789
965,166	11,09803
965,333	-107,51973
965,499	-53,41131
965,665	92,24806
965,832	-7,62998
965,998	65,19889
966,164	11,09803
966,331	29,82564
966,497	23,58315
966,663	-13,87274
966,829	79,76393
966,996	90,16738
967,162	-15,95368
967,328	4,85541
967,494	36,06808
967,66	-28,43937
967,826	67,27963
967,992	-59,65441
968,158	4,85541
968,324	52,71438
968,491	-28,43937
968,657	-5,54907
968,823	38,14889
968,988	-28,43937
969,154	-47,16826
969,32	83,92533
969,486	-55,49234
969,652	67,27963
969,818	-65,89756
969,984	15,25976
970,15	44,39127
970,316	-38,84425
970,481	-30,52034
970,647	44,39127
970,813	-32,60131
970,979	11,09803
971,144	31,90646
971,31	-9,7109
971,476	-76,3029
971,642	-43,00624
971,807	27,74481
971,973	-65,89756
972,138	-24,27745
972,304	29,82564
972,47	-3,46816
972,635	-30,52034
972,801	86,00602
972,966	-26,35841
973,132	-11,79182
973,297	67,27963
973,463	19,42146
973,628	-51,33029
973,794	-24,27745
973,959	-32,60131
974,125	-84,62728
974,29	-72,14075
974,455	-40,92525
974,621	-38,84425
974,786	-18,03461
974,951	-61,73545
975,117	-9,7109
975,282	-13,87274
975,447	-34,68229
975,612	79,76393
975,778	-3,46816
975,943	-28,43937
976,108	48,55284
976,273	67,27963
976,438	-20,11555
976,603	25,66398
976,768	-45,08725
976,934	-40,92525
977,099	-9,7109
977,264	50,63361
977,429	27,74481
977,594	-49,24927
977,759	-5,54907
977,924	-32,60131
978,089	-22,1965
978,254	23,58315
978,418	6,93629
978,583	-84,62728
978,748	56,87591
978,913	-84,62728
979,078	-32,60131
979,243	0,69363
979,408	29,82564
979,572	-74,22182
979,737	42,31048
979,902	-26,35841
980,067	152,58549
980,231	-28,43937
980,396	-1,38726
980,561	-101,27627
980,725	-70,05968
980,89	23,58315
981,055	-15,95368
981,219	46,47206
981,384	-24,27745
981,548	-82,54618
981,713	-115,84441
981,877	-9,7109
982,042	-70,05968
982,206	90,16738
982,371	-63,8165
982,535	11,09803
982,7	321,09265
982,864	4,85541
983,029	0,69363
983,193	-5,54907
983,357	61,03741
983,522	33,98727
983,686	58,95666
983,85	15,25976
984,015	36,06808
984,179	73,5218
984,343	19,42146
984,507	-63,8165
984,672	104,732
984,836	-47,16826
985	-53,41131
985,164	-138,73772
985,328	23,58315
985,492	-103,35742
985,656	40,22969
985,821	-70,05968
985,985	-126,25038
986,149	21,50231
986,313	17,34061
986,477	-161,63167
986,641	-115,84441
986,805	88,0867
986,969	-53,41131
987,133	119,29638
987,296	-115,84441
987,46	65,19889
987,624	-15,95368
987,788	-61,73545
987,952	-9,7109
988,116	-22,1965
988,28	42,31048
988,443	110,97391
988,607	-20,11555
988,771	46,47206
988,935	81,84463
989,098	-105,43857
989,262	15,25976
989,426	-24,27745
989,589	-15,95368
989,753	-74,22182
989,917	56,87591
990,08	33,98727
990,244	115,13516
990,407	-43,00624
990,571	86,00602
990,734	42,31048
990,898	48,55284
991,061	-32,60131
991,225	0,69363
991,388	-34,68229
991,552	44,39127
991,715	-65,89756
991,878	-9,7109
992,042	23,58315
992,205	21,50231
992,369	-51,33029
992,532	-9,7109
992,695	-45,08725
992,858	67,27963
993,022	13,1789
993,185	25,66398
993,348	-20,11555
993,511	13,1789
993,675	2,77452
993,838	-3,46816
994,001	19,42146
994,164	25,66398
994,327	29,82564
994,49	44,39127
994,653	-65,89756
994,816	-13,87274
994,979	52,71438
995,142	-7,62998
995,305	11,09803
995,468	-22,1965
995,631	-92,95173
995,794	-34,68229
995,957	-22,1965
996,12	-30,52034
996,283	86,00602
996,446	38,14889
996,609	-32,60131
996,772	48,55284
996,934	-51,33029
997,097	2,77452
997,26	58,95666
997,423	-22,1965
997,585	-86,70838
997,748	0,69363
997,911	-63,8165
998,074	69,36036
998,236	-47,16826
998,399	-128,33159
998,561	-113,76323
998,724	-5,54907
998,887	-63,8165
999,049	-80,46508
999,212	38,14889
999,374	31,90646
999,537	-13,87274
999,699	-76,3029
999,862	56,87591
1000,024	-95,03286
1000,187	50,63361
1000,349	-9,7109
1000,512	33,98727
1000,674	-49,24927
1000,836	38,14889
1000,999	15,25976
1001,161	-28,43937
1001,323	-5,54907
1001,486	-113,76323
1001,648	-45,08725
1001,81	-32,60131
1001,972	-28,43937
1002,134	-63,8165
1002,297	11,09803
1002,459	13,1789
1002,621	-30,52034
1002,783	29,82564
1002,945	-34,68229
1003,107	-38,84425
1003,269	58,95666
1003,432	52,71438
1003,594	-11,79182
1003,756	4,85541
1003,918	2,77452
1004,08	-26,35841
1004,242	135,94109
1004,404	25,66398
1004,565	-28,43937
1004,727	15,25976
1004,889	-53,41131
1005,051	-134,57525
1005,213	11,09803
1005,375	33,98727
1005,537	-53,41131
1005,698	54,79515
1005,86	0,69363
1006,022	27,74481
1006,184	-55,49234
1006,345	21,50231
1006,507	-32,60131
1006,669	-138,73772
1006,831	-59,65441
1006,992	6,93629
1007,154	-11,79182
1007,315	-117,92559
1007,477	-5,54907
1007,639	25,66398
1007,8	-20,11555
1007,962	33,98727
1008,123	-40,92525
1008,285	15,25976
1008,446	-51,33029
1008,608	-157,46908
1008,769	148,42442
1008,931	15,25976
1009,092	-82,54618
1009,253	-20,11555
1009,415	44,39127
1009,576	-28,43937
1009,737	-20,11555
1009,899	-18,03461
1010,06	-32,60131
1010,221	19,42146
1010,382	-74,22182
1010,544	4,85541
1010,705	29,82564
1010,866	119,29638
1011,027	-101,27627
1011,188	6,93629
1011,35	-24,27745
1011,511	-40,92525
1011,672	-80,46508
1011,833	-57,57337
1011,994	88,0867
1012,155	36,06808
1012,316	-22,1965
1012,477	-38,84425
1012,638	-22,1965
1012,799	42,31048
1012,96	123,45759
1013,121	65,19889
1013,282	44,39127
1013,443	106,81264
1013,604	140,10222
1013,765	21,50231
1013,925	-45,08725
1014,086	6,93629
1014,247	-103,35742
1014,408	58,95666
1014,569	-15,95368
1014,729	-49,24927
1014,89	75,60252
1015,051	-36,76327
1015,211	-18,03461
1015,372	-55,49234
1015,533	23,58315
1015,693	52,71438
1015,854	0,69363
1016,015	-3,46816
1016,175	2,77452
1016,336	33,98727
1016,496	6,93629
1016,657	6,93629
1016,817	50,63361
1016,978	-13,87274
1017,138	102,65136
1017,299	63,11815
1017,459	-49,24927
1017,62	2,77452
1017,78	36,06808
1017,94	-18,03461
1018,101	-28,43937
1018,261	-1,38726
1018,421	69,36036
1018,582	15,25976
1018,742	-28,43937
1018,902	-57,57337
1019,062	-74,22182
1019,223	-34,68229
1019,383	-107,51973
1019,543	75,60252
1019,703	-63,8165
1019,863	19,42146
1020,023	0,69363
1020,184	-34,68229
1020,344	44,39127
1020,504	23,58315
1020,664	-51,33029
1020,824	-67,97862
1020,984	-32,60131
1021,144	-5,54907
1021,304	-53,41131
1021,464	-36,76327
1021,624	-11,79182
1021,784	-1,38726
1021,943	6,93629
1022,103	0,69363
1022,263	-65,89756
1022,423	-32,60131
1022,583	-36,76327
1022,743	9,01716
1022,902	-97,11399
1023,062	-38,84425
1023,222	40,22969
1023,382	-65,89756
1023,541	94,32873
1023,701	-51,33029
1023,861	-72,14075
1024,02	21,50231
1024,18	-38,84425
1024,34	-117,92559
1024,499	-28,43937
1024,659	106,81264
1024,818	-24,27745
1024,978	-18,03461
1025,137	71,44108
1025,297	50,63361
1025,456	9,01716
1025,616	65,19889
1025,775	-103,35742
1025,935	121,37699
1026,094	73,5218
1026,254	2,77452
1026,413	42,31048
1026,572	13,1789
1026,732	-103,35742
1026,891	0,69363
1027,05	27,74481
1027,21	27,74481
1027,369	33,98727
1027,528	-53,41131
1027,687	90,16738
1027,846	-18,03461
1028,006	-22,1965
1028,165	-76,3029
1028,324	-28,43937
1028,483	-15,95368
1028,642	-24,27745
1028,801	-47,16826
1028,96	38,14889
1029,119	-15,95368
1029,278	-84,62728
1029,437	-34,68229
1029,596	-63,8165
1029,755	-45,08725
1029,914	-18,03461
1030,073	-82,54618
1030,232	-61,73545
1030,391	-97,11399
1030,55	4,85541
1030,709	21,50231
1030,868	19,42146
1031,026	21,50231
1031,185	15,25976
1031,344	46,47206
1031,503	-20,11555
1031,662	2,77452
1031,82	-57,57337
1031,979	-32,60131
1032,138	71,44108
1032,296	13,1789
1032,455	-92,95173
1032,614	110,97391
1032,772	40,22969
1032,931	-15,95368
1033,089	-40,92525
1033,248	-40,92525
1033,407	-47,16826
1033,565	-32,60131
1033,724	-63,8165
1033,882	15,25976
1034,04	6,93629
1034,199	119,29638
1034,357	-55,49234
1034,516	-47,16826
1034,674	-24,27745
1034,832	-20,11555
1034,991	-30,52034
1035,149	-67,97862
1035,307	-18,03461
1035,466	40,22969
1035,624	-3,46816
1035,782	15,25976
1035,941	13,1789
1036,099	-11,79182
1036,257	42,31048
1036,415	79,76393
1036,573	100,57071
1036,731	-61,73545
1036,889	-15,95368
1037,048	-13,87274
1037,206	67,27963
1037,364	-51,33029
1037,522	29,82564
1037,68	-105,43857
1037,838	48,55284
1037,996	48,55284
1038,154	48,55284
